# Atmospheric Model 56012101
# Col. #1          #2           #3            #4
# Alt [km]    rho [g/cm^3] thick [g/cm^2]    n-1
0.00000E+00 1.14540E-03 1.04808E+03 3.00000E-03
1.00000E+00 1.04221E-03 9.38784E+02 3.00000E-03
2.00000E+00 9.48309E-04 8.39332E+02 3.00000E-03
3.00000E+00 8.62872E-04 7.48840E+02 3.00000E-03
4.00000E+00 7.83752E-04 6.66516E+02 3.00000E-03
5.00000E+00 7.07612E-04 5.92013E+02 3.00000E-03
6.00000E+00 6.38872E-04 5.24747E+02 3.00000E-03
7.00000E+00 5.76811E-04 4.64016E+02 3.00000E-03
8.00000E+00 5.20781E-04 4.09184E+02 3.00000E-03
9.00000E+00 4.70195E-04 3.59679E+02 3.00000E-03
1.00000E+01 4.20844E-04 3.15037E+02 3.00000E-03
1.10000E+01 3.68714E-04 2.75616E+02 3.00000E-03
1.20000E+01 3.23043E-04 2.41079E+02 3.00000E-03
1.30000E+01 2.83031E-04 2.10819E+02 3.00000E-03
1.40000E+01 2.47975E-04 1.84307E+02 3.00000E-03
1.50000E+01 2.17263E-04 1.61079E+02 3.00000E-03
1.60000E+01 1.90355E-04 1.40728E+02 3.00000E-03
1.70000E+01 1.66781E-04 1.22897E+02 3.00000E-03
1.80000E+01 1.46126E-04 1.07275E+02 3.00000E-03
1.90000E+01 1.28031E-04 9.35868E+01 3.00000E-03
2.00000E+01 1.12176E-04 8.15939E+01 3.00000E-03
2.10000E+01 9.82858E-05 7.10861E+01 3.00000E-03
2.20000E+01 8.61156E-05 6.18795E+01 3.00000E-03
2.30000E+01 7.54528E-05 5.38128E+01 3.00000E-03
2.40000E+01 6.61106E-05 4.67449E+01 3.00000E-03
2.50000E+01 5.79254E-05 4.05521E+01 3.00000E-03
2.75000E+01 4.10680E-05 2.82498E+01 3.00000E-03
3.00000E+01 2.85471E-05 1.96427E+01 3.00000E-03
3.25000E+01 1.98457E-05 1.36594E+01 3.00000E-03
3.50000E+01 1.37980E-05 9.49966E+00 3.00000E-03
3.75000E+01 9.59419E-06 6.60742E+00 3.00000E-03
4.00000E+01 6.67185E-06 4.59625E+00 3.00000E-03
4.25000E+01 4.64011E-06 3.19761E+00 3.00000E-03
4.50000E+01 3.22741E-06 2.22484E+00 3.00000E-03
4.75000E+01 2.24503E-06 1.54820E+00 3.00000E-03
5.00000E+01 1.56183E-06 1.07750E+00 3.00000E-03
5.50000E+01 7.56113E-07 5.22170E-01 3.00000E-03
6.00000E+01 3.66189E-07 2.53280E-01 3.00000E-03
6.50000E+01 1.77415E-07 1.23034E-01 3.00000E-03
7.00000E+01 8.59876E-08 5.99207E-02 3.00000E-03
7.50000E+01 4.16909E-08 2.93266E-02 3.00000E-03
8.00000E+01 2.02210E-08 1.44908E-02 3.00000E-03
8.50000E+01 9.81114E-09 7.29393E-03 3.00000E-03
9.00000E+01 4.76196E-09 3.80152E-03 3.00000E-03
9.50000E+01 2.31207E-09 2.10618E-03 3.00000E-03
1.00000E+02 1.00000E-09 1.28292E-03 3.00000E-03
1.05000E+02 9.52381E-10 7.82920E-04 3.00000E-03
1.10000E+02 9.09091E-10 2.82920E-04 3.00000E-03
1.15000E+02 8.69565E-10 1.00000E-05 3.00000E-03
1.20000E+02 8.33333E-10 0.00000E+00 3.00000E-03
