# Atmospheric Model 56012103
# Col. #1          #2           #3            #4
# Alt [km]    rho [g/cm^3] thick [g/cm^2]    n-1
0.00000E+00 1.14725E-03 1.04964E+03 3.00000E-03
1.00000E+00 1.04395E-03 9.40163E+02 3.00000E-03
2.00000E+00 9.49948E-04 8.40542E+02 3.00000E-03
3.00000E+00 8.64412E-04 7.49892E+02 3.00000E-03
4.00000E+00 7.85240E-04 6.67418E+02 3.00000E-03
5.00000E+00 7.09033E-04 5.92769E+02 3.00000E-03
6.00000E+00 6.40224E-04 5.25365E+02 3.00000E-03
7.00000E+00 5.78094E-04 4.64502E+02 3.00000E-03
8.00000E+00 5.21996E-04 4.09545E+02 3.00000E-03
9.00000E+00 4.71343E-04 3.59921E+02 3.00000E-03
1.00000E+01 4.21889E-04 3.15167E+02 3.00000E-03
1.10000E+01 3.69520E-04 2.75655E+02 3.00000E-03
1.20000E+01 3.23651E-04 2.41047E+02 3.00000E-03
1.30000E+01 2.83477E-04 2.10735E+02 3.00000E-03
1.40000E+01 2.48291E-04 1.84185E+02 3.00000E-03
1.50000E+01 2.17472E-04 1.60931E+02 3.00000E-03
1.60000E+01 1.90479E-04 1.40563E+02 3.00000E-03
1.70000E+01 1.66837E-04 1.22723E+02 3.00000E-03
1.80000E+01 1.46130E-04 1.07098E+02 3.00000E-03
1.90000E+01 1.27993E-04 9.34118E+01 3.00000E-03
2.00000E+01 1.12108E-04 8.14243E+01 3.00000E-03
2.10000E+01 9.81942E-05 7.09245E+01 3.00000E-03
2.20000E+01 8.60075E-05 6.17279E+01 3.00000E-03
2.30000E+01 7.53335E-05 5.36726E+01 3.00000E-03
2.40000E+01 6.59844E-05 4.66170E+01 3.00000E-03
2.50000E+01 5.77957E-05 4.04371E+01 3.00000E-03
2.75000E+01 4.10031E-05 2.81611E+01 3.00000E-03
3.00000E+01 2.84861E-05 1.95698E+01 3.00000E-03
3.25000E+01 1.97921E-05 1.36008E+01 3.00000E-03
3.50000E+01 1.37529E-05 9.45345E+00 3.00000E-03
3.75000E+01 9.55739E-06 6.57142E+00 3.00000E-03
4.00000E+01 6.64242E-06 4.56851E+00 3.00000E-03
4.25000E+01 4.61694E-06 3.17642E+00 3.00000E-03
4.50000E+01 3.20941E-06 2.20877E+00 3.00000E-03
4.75000E+01 2.23119E-06 1.53610E+00 3.00000E-03
5.00000E+01 1.55127E-06 1.06843E+00 3.00000E-03
5.50000E+01 7.50092E-07 5.17151E-01 3.00000E-03
6.00000E+01 3.62829E-07 2.50546E-01 3.00000E-03
6.50000E+01 1.75569E-07 1.21565E-01 3.00000E-03
7.00000E+01 8.49867E-08 5.91424E-02 3.00000E-03
7.50000E+01 4.11536E-08 2.89212E-02 3.00000E-03
8.00000E+01 1.99350E-08 1.42847E-02 3.00000E-03
8.50000E+01 9.65996E-09 7.19370E-03 3.00000E-03
9.00000E+01 4.68254E-09 3.75705E-03 3.00000E-03
9.50000E+01 2.27056E-09 2.09094E-03 3.00000E-03
1.00000E+02 1.00000E-09 1.28292E-03 3.00000E-03
1.05000E+02 9.52381E-10 7.82920E-04 3.00000E-03
1.10000E+02 9.09091E-10 2.82920E-04 3.00000E-03
1.15000E+02 8.69565E-10 1.00000E-05 3.00000E-03
1.20000E+02 8.33333E-10 0.00000E+00 3.00000E-03
