# Atmospheric Model 56012105
# Col. #1          #2           #3            #4
# Alt [km]    rho [g/cm^3] thick [g/cm^2]    n-1
0.00000E+00 1.16680E-03 1.05300E+03 3.00000E-03
1.00000E+00 1.06056E-03 9.41718E+02 3.00000E-03
2.00000E+00 9.64001E-04 8.40567E+02 3.00000E-03
3.00000E+00 8.76229E-04 7.48625E+02 3.00000E-03
4.00000E+00 7.95300E-04 6.65067E+02 3.00000E-03
5.00000E+00 7.17894E-04 5.89473E+02 3.00000E-03
6.00000E+00 6.48026E-04 5.21237E+02 3.00000E-03
7.00000E+00 5.84959E-04 4.59641E+02 3.00000E-03
8.00000E+00 5.28032E-04 4.04040E+02 3.00000E-03
9.00000E+00 4.76646E-04 3.53850E+02 3.00000E-03
1.00000E+01 4.24828E-04 3.08648E+02 3.00000E-03
1.10000E+01 3.70474E-04 2.68945E+02 3.00000E-03
1.20000E+01 3.23077E-04 2.34321E+02 3.00000E-03
1.30000E+01 2.81745E-04 2.04127E+02 3.00000E-03
1.40000E+01 2.45702E-04 1.77796E+02 3.00000E-03
1.50000E+01 2.14272E-04 1.54833E+02 3.00000E-03
1.60000E+01 1.86862E-04 1.34808E+02 3.00000E-03
1.70000E+01 1.62960E-04 1.17344E+02 3.00000E-03
1.80000E+01 1.42116E-04 1.02114E+02 3.00000E-03
1.90000E+01 1.23939E-04 8.88317E+01 3.00000E-03
2.00000E+01 1.08087E-04 7.72484E+01 3.00000E-03
2.10000E+01 9.42637E-05 6.71466E+01 3.00000E-03
2.20000E+01 8.22084E-05 5.83368E+01 3.00000E-03
2.30000E+01 7.16952E-05 5.06536E+01 3.00000E-03
2.40000E+01 6.25268E-05 4.39529E+01 3.00000E-03
2.50000E+01 5.45312E-05 3.81091E+01 3.00000E-03
2.75000E+01 3.84560E-05 2.65765E+01 3.00000E-03
3.00000E+01 2.67795E-05 1.85099E+01 3.00000E-03
3.25000E+01 1.86494E-05 1.28925E+01 3.00000E-03
3.50000E+01 1.29883E-05 8.98035E+00 3.00000E-03
3.75000E+01 9.04606E-06 6.25571E+00 3.00000E-03
4.00000E+01 6.30074E-06 4.35801E+00 3.00000E-03
4.25000E+01 4.38881E-06 3.03620E+00 3.00000E-03
4.50000E+01 3.05721E-06 2.11546E+00 3.00000E-03
4.75000E+01 2.12974E-06 1.47406E+00 3.00000E-03
5.00000E+01 1.48371E-06 1.02724E+00 3.00000E-03
5.50000E+01 7.20222E-07 4.99056E-01 3.00000E-03
6.00000E+01 3.49683E-07 2.42644E-01 3.00000E-03
6.50000E+01 1.69814E-07 1.18138E-01 3.00000E-03
7.00000E+01 8.24826E-08 5.76704E-02 3.00000E-03
7.50000E+01 4.00720E-08 2.82970E-02 3.00000E-03
8.00000E+01 1.94719E-08 1.40255E-02 3.00000E-03
8.50000E+01 9.46381E-09 7.08992E-03 3.00000E-03
9.00000E+01 4.60056E-09 3.71879E-03 3.00000E-03
9.50000E+01 2.23689E-09 2.07987E-03 3.00000E-03
1.00000E+02 1.00000E-09 1.28292E-03 3.00000E-03
1.05000E+02 9.52381E-10 7.82920E-04 3.00000E-03
1.10000E+02 9.09091E-10 2.82920E-04 3.00000E-03
1.15000E+02 8.69565E-10 1.00000E-05 3.00000E-03
1.20000E+02 8.33333E-10 0.00000E+00 3.00000E-03
