# Atmospheric Model 56012108
# Col. #1          #2           #3            #4
# Alt [km]    rho [g/cm^3] thick [g/cm^2]    n-1
0.00000E+00 1.17364E-03 1.05279E+03 3.00000E-03
1.00000E+00 1.06592E-03 9.40901E+02 3.00000E-03
2.00000E+00 9.68090E-04 8.39279E+02 3.00000E-03
3.00000E+00 8.79240E-04 7.46984E+02 3.00000E-03
4.00000E+00 7.97430E-04 6.63172E+02 3.00000E-03
5.00000E+00 7.19526E-04 5.87391E+02 3.00000E-03
6.00000E+00 6.49236E-04 5.19013E+02 3.00000E-03
7.00000E+00 5.85816E-04 4.57315E+02 3.00000E-03
8.00000E+00 5.28593E-04 4.01643E+02 3.00000E-03
9.00000E+00 4.76962E-04 3.51410E+02 3.00000E-03
1.00000E+01 4.24408E-04 3.06206E+02 3.00000E-03
1.10000E+01 3.69671E-04 2.66565E+02 3.00000E-03
1.20000E+01 3.21998E-04 2.32037E+02 3.00000E-03
1.30000E+01 2.80476E-04 2.01961E+02 3.00000E-03
1.40000E+01 2.44312E-04 1.75763E+02 3.00000E-03
1.50000E+01 2.12813E-04 1.52943E+02 3.00000E-03
1.60000E+01 1.85378E-04 1.33065E+02 3.00000E-03
1.70000E+01 1.61482E-04 1.15749E+02 3.00000E-03
1.80000E+01 1.40668E-04 1.00666E+02 3.00000E-03
1.90000E+01 1.22539E-04 8.75263E+01 3.00000E-03
2.00000E+01 1.06747E-04 7.60802E+01 3.00000E-03
2.10000E+01 9.29914E-05 6.61091E+01 3.00000E-03
2.20000E+01 8.10096E-05 5.74229E+01 3.00000E-03
2.30000E+01 7.05725E-05 4.98558E+01 3.00000E-03
2.40000E+01 6.14808E-05 4.32636E+01 3.00000E-03
2.50000E+01 5.35611E-05 3.75206E+01 3.00000E-03
2.75000E+01 3.77613E-05 2.62017E+01 3.00000E-03
3.00000E+01 2.63345E-05 1.82753E+01 3.00000E-03
3.25000E+01 1.83664E-05 1.27474E+01 3.00000E-03
3.50000E+01 1.28098E-05 8.89205E+00 3.00000E-03
3.75000E+01 8.93467E-06 6.20303E+00 3.00000E-03
4.00000E+01 6.23212E-06 4.32742E+00 3.00000E-03
4.25000E+01 4.34722E-06 3.01913E+00 3.00000E-03
4.50000E+01 3.03255E-06 2.10650E+00 3.00000E-03
4.75000E+01 2.11554E-06 1.46986E+00 3.00000E-03
5.00000E+01 1.47590E-06 1.02571E+00 3.00000E-03
5.50000E+01 7.18425E-07 4.99670E-01 3.00000E-03
6.00000E+01 3.49770E-07 2.43587E-01 3.00000E-03
6.50000E+01 1.70317E-07 1.18902E-01 3.00000E-03
7.00000E+01 8.29487E-08 5.81830E-02 3.00000E-03
7.50000E+01 4.04049E-08 2.86092E-02 3.00000E-03
8.00000E+01 1.96848E-08 1.42025E-02 3.00000E-03
8.50000E+01 9.59182E-09 7.18325E-03 3.00000E-03
9.00000E+01 4.67458E-09 3.76271E-03 3.00000E-03
9.50000E+01 2.27853E-09 2.09558E-03 3.00000E-03
1.00000E+02 1.00000E-09 1.28292E-03 3.00000E-03
1.05000E+02 9.52381E-10 7.82920E-04 3.00000E-03
1.10000E+02 9.09091E-10 2.82920E-04 3.00000E-03
1.15000E+02 8.69565E-10 1.00000E-05 3.00000E-03
1.20000E+02 8.33333E-10 0.00000E+00 3.00000E-03
