# Atmospheric Model 5601202107
# Col. #1          #2           #3            #4
# Alt [km]    rho [g/cm^3] thick [g/cm^2]    n-1
0.00000E+00 1.17380E-03 1.05364E+03 3.00000E-03
1.00000E+00 1.06583E-03 9.41747E+02 3.00000E-03
2.00000E+00 9.67785E-04 8.40145E+02 3.00000E-03
3.00000E+00 8.78762E-04 7.47890E+02 3.00000E-03
4.00000E+00 7.96846E-04 6.64132E+02 3.00000E-03
5.00000E+00 7.18893E-04 5.88412E+02 3.00000E-03
6.00000E+00 6.48569E-04 5.20099E+02 3.00000E-03
7.00000E+00 5.85127E-04 4.58468E+02 3.00000E-03
8.00000E+00 5.27892E-04 4.02867E+02 3.00000E-03
9.00000E+00 4.76259E-04 3.52703E+02 3.00000E-03
1.00000E+01 4.24164E-04 3.07555E+02 3.00000E-03
1.10000E+01 3.69775E-04 2.67920E+02 3.00000E-03
1.20000E+01 3.22364E-04 2.33368E+02 3.00000E-03
1.30000E+01 2.81035E-04 2.03245E+02 3.00000E-03
1.40000E+01 2.45008E-04 1.76984E+02 3.00000E-03
1.50000E+01 2.13601E-04 1.54090E+02 3.00000E-03
1.60000E+01 1.86223E-04 1.34130E+02 3.00000E-03
1.70000E+01 1.62355E-04 1.16728E+02 3.00000E-03
1.80000E+01 1.41549E-04 1.01557E+02 3.00000E-03
1.90000E+01 1.23410E-04 8.83295E+01 3.00000E-03
2.00000E+01 1.07596E-04 7.67972E+01 3.00000E-03
2.10000E+01 9.38106E-05 6.67426E+01 3.00000E-03
2.20000E+01 8.17920E-05 5.79762E+01 3.00000E-03
2.30000E+01 7.13140E-05 5.03329E+01 3.00000E-03
2.40000E+01 6.21790E-05 4.36687E+01 3.00000E-03
2.50000E+01 5.42147E-05 3.78581E+01 3.00000E-03
2.75000E+01 3.82380E-05 2.63931E+01 3.00000E-03
3.00000E+01 2.66146E-05 1.83741E+01 3.00000E-03
3.25000E+01 1.85258E-05 1.27925E+01 3.00000E-03
3.50000E+01 1.28964E-05 8.90713E+00 3.00000E-03
3.75000E+01 8.97817E-06 6.20232E+00 3.00000E-03
4.00000E+01 6.25086E-06 4.31923E+00 3.00000E-03
4.25000E+01 4.35234E-06 3.00813E+00 3.00000E-03
4.50000E+01 3.03065E-06 2.09520E+00 3.00000E-03
4.75000E+01 2.11048E-06 1.45949E+00 3.00000E-03
5.00000E+01 1.46979E-06 1.01678E+00 3.00000E-03
5.50000E+01 7.13004E-07 4.93705E-01 3.00000E-03
6.00000E+01 3.45977E-07 2.39929E-01 3.00000E-03
6.50000E+01 1.67926E-07 1.16772E-01 3.00000E-03
7.00000E+01 8.15271E-08 5.69890E-02 3.00000E-03
7.50000E+01 3.95912E-08 2.79614E-02 3.00000E-03
8.00000E+01 1.92311E-08 1.38634E-02 3.00000E-03
8.50000E+01 9.34370E-09 7.01465E-03 3.00000E-03
9.00000E+01 4.54088E-09 3.68674E-03 3.00000E-03
9.50000E+01 2.20732E-09 2.06926E-03 3.00000E-03
1.00000E+02 1.00000E-09 1.28292E-03 3.00000E-03
1.05000E+02 9.52381E-10 7.82920E-04 3.00000E-03
1.10000E+02 9.09091E-10 2.82920E-04 3.00000E-03
1.15000E+02 8.69565E-10 1.00000E-05 3.00000E-03
1.20000E+02 8.33333E-10 0.00000E+00 3.00000E-03
