# Atmospheric Model 5501202107
# Col. #1          #2           #3            #4
# Alt [km]    rho [g/cm^3] thick [g/cm^2]    n-1
0.00000E+00 1.17766E-03 1.06144E+03 3.00000E-03
1.00000E+00 1.06880E-03 9.49205E+02 3.00000E-03
2.00000E+00 9.70037E-04 8.47343E+02 3.00000E-03
3.00000E+00 8.80422E-04 7.54893E+02 3.00000E-03
4.00000E+00 7.97486E-04 6.70999E+02 3.00000E-03
5.00000E+00 7.16755E-04 5.95359E+02 3.00000E-03
6.00000E+00 6.44198E-04 5.27375E+02 3.00000E-03
7.00000E+00 5.78988E-04 4.66274E+02 3.00000E-03
8.00000E+00 5.20381E-04 4.11358E+02 3.00000E-03
9.00000E+00 4.67707E-04 3.62000E+02 3.00000E-03
1.00000E+01 4.17845E-04 3.17672E+02 3.00000E-03
1.10000E+01 3.66986E-04 2.78485E+02 3.00000E-03
1.20000E+01 3.22318E-04 2.44068E+02 3.00000E-03
1.30000E+01 2.83087E-04 2.13841E+02 3.00000E-03
1.40000E+01 2.48631E-04 1.87292E+02 3.00000E-03
1.50000E+01 2.18370E-04 1.63975E+02 3.00000E-03
1.60000E+01 1.91791E-04 1.43495E+02 3.00000E-03
1.70000E+01 1.68448E-04 1.25509E+02 3.00000E-03
1.80000E+01 1.47946E-04 1.09711E+02 3.00000E-03
1.90000E+01 1.29940E-04 9.58363E+01 3.00000E-03
2.00000E+01 1.14125E-04 8.36501E+01 3.00000E-03
2.10000E+01 1.00235E-04 7.29471E+01 3.00000E-03
2.20000E+01 8.80358E-05 6.35468E+01 3.00000E-03
2.30000E+01 7.73213E-05 5.52905E+01 3.00000E-03
2.40000E+01 6.79110E-05 4.80391E+01 3.00000E-03
2.50000E+01 5.96460E-05 4.16702E+01 3.00000E-03
2.75000E+01 4.25068E-05 2.89625E+01 3.00000E-03
3.00000E+01 2.94427E-05 2.00687E+01 3.00000E-03
3.25000E+01 2.03965E-05 1.39079E+01 3.00000E-03
3.50000E+01 1.41316E-05 9.63969E+00 3.00000E-03
3.75000E+01 9.79238E-06 6.68231E+00 3.00000E-03
4.00000E+01 6.78645E-06 4.63289E+00 3.00000E-03
4.25000E+01 4.70386E-06 3.21248E+00 3.00000E-03
4.50000E+01 3.26080E-06 2.22790E+00 3.00000E-03
4.75000E+01 2.26074E-06 1.54533E+00 3.00000E-03
5.00000E+01 1.56759E-06 1.07207E+00 3.00000E-03
5.50000E+01 7.53991E-07 5.16292E-01 3.00000E-03
6.00000E+01 3.62844E-07 2.48910E-01 3.00000E-03
6.50000E+01 1.74699E-07 1.20209E-01 3.00000E-03
7.00000E+01 8.41540E-08 5.82295E-02 3.00000E-03
7.50000E+01 4.05572E-08 2.83672E-02 3.00000E-03
8.00000E+01 1.95554E-08 1.39723E-02 3.00000E-03
8.50000E+01 9.43341E-09 7.03012E-03 3.00000E-03
9.00000E+01 4.55269E-09 3.68058E-03 3.00000E-03
9.50000E+01 2.19817E-09 2.06373E-03 3.00000E-03
1.00000E+02 1.00000E-09 1.28292E-03 3.00000E-03
1.05000E+02 9.52381E-10 7.82920E-04 3.00000E-03
1.10000E+02 9.09091E-10 2.82920E-04 3.00000E-03
1.15000E+02 8.69565E-10 1.00000E-05 3.00000E-03
1.20000E+02 8.33333E-10 0.00000E+00 3.00000E-03
