# Atmospheric Model 55012102
# Col. #1          #2           #3            #4
# Alt [km]    rho [g/cm^3] thick [g/cm^2]    n-1
0.00000E+00 1.16203E-03 1.05715E+03 3.00000E-03
1.00000E+00 1.05740E-03 9.46263E+02 3.00000E-03
2.00000E+00 9.62212E-04 8.45357E+02 3.00000E-03
3.00000E+00 8.75615E-04 7.53534E+02 3.00000E-03
4.00000E+00 7.94713E-04 6.69998E+02 3.00000E-03
5.00000E+00 7.14648E-04 5.94601E+02 3.00000E-03
6.00000E+00 6.42650E-04 5.26799E+02 3.00000E-03
7.00000E+00 5.77908E-04 4.65829E+02 3.00000E-03
8.00000E+00 5.19689E-04 4.11000E+02 3.00000E-03
9.00000E+00 4.67336E-04 3.61696E+02 3.00000E-03
1.00000E+01 4.17518E-04 3.17396E+02 3.00000E-03
1.10000E+01 3.66712E-04 2.78239E+02 3.00000E-03
1.20000E+01 3.22088E-04 2.43848E+02 3.00000E-03
1.30000E+01 2.82894E-04 2.13641E+02 3.00000E-03
1.40000E+01 2.48470E-04 1.87110E+02 3.00000E-03
1.50000E+01 2.18235E-04 1.63807E+02 3.00000E-03
1.60000E+01 1.91680E-04 1.43340E+02 3.00000E-03
1.70000E+01 1.68355E-04 1.25364E+02 3.00000E-03
1.80000E+01 1.47869E-04 1.09575E+02 3.00000E-03
1.90000E+01 1.29876E-04 9.57067E+01 3.00000E-03
2.00000E+01 1.14073E-04 8.35264E+01 3.00000E-03
2.10000E+01 1.00192E-04 7.28281E+01 3.00000E-03
2.20000E+01 8.80011E-05 6.34316E+01 3.00000E-03
2.30000E+01 7.72932E-05 5.51784E+01 3.00000E-03
2.40000E+01 6.78883E-05 4.79295E+01 3.00000E-03
2.50000E+01 5.96278E-05 4.15627E+01 3.00000E-03
2.75000E+01 4.23276E-05 2.88761E+01 3.00000E-03
3.00000E+01 2.93293E-05 2.00182E+01 3.00000E-03
3.25000E+01 2.03263E-05 1.38800E+01 3.00000E-03
3.50000E+01 1.40893E-05 9.62565E+00 3.00000E-03
3.75000E+01 9.76776E-06 6.67647E+00 3.00000E-03
4.00000E+01 6.77292E-06 4.63171E+00 3.00000E-03
4.25000E+01 4.69711E-06 3.21377E+00 3.00000E-03
4.50000E+01 3.25805E-06 2.23033E+00 3.00000E-03
4.75000E+01 2.26026E-06 1.54813E+00 3.00000E-03
5.00000E+01 1.56831E-06 1.07482E+00 3.00000E-03
5.50000E+01 7.55421E-07 5.18446E-01 3.00000E-03
6.00000E+01 3.64105E-07 2.50374E-01 3.00000E-03
6.50000E+01 1.75605E-07 1.21130E-01 3.00000E-03
7.00000E+01 8.47451E-08 5.87803E-02 3.00000E-03
7.50000E+01 4.09217E-08 2.86828E-02 3.00000E-03
8.00000E+01 1.97719E-08 1.41455E-02 3.00000E-03
8.50000E+01 9.55860E-09 7.11976E-03 3.00000E-03
9.00000E+01 4.62363E-09 3.72240E-03 3.00000E-03
9.50000E+01 2.23774E-09 2.07865E-03 3.00000E-03
1.00000E+02 1.00000E-09 1.28292E-03 3.00000E-03
1.05000E+02 9.52381E-10 7.82920E-04 3.00000E-03
1.10000E+02 9.09091E-10 2.82920E-04 3.00000E-03
1.15000E+02 8.69565E-10 1.00000E-05 3.00000E-03
1.20000E+02 8.33333E-10 0.00000E+00 3.00000E-03
