# Atmospheric Model 55012105
# Col. #1          #2           #3            #4
# Alt [km]    rho [g/cm^3] thick [g/cm^2]    n-1
0.00000E+00 1.17111E-03 1.05979E+03 3.00000E-03
1.00000E+00 1.06306E-03 9.48171E+02 3.00000E-03
2.00000E+00 9.65001E-04 8.46848E+02 3.00000E-03
3.00000E+00 8.76007E-04 7.54869E+02 3.00000E-03
4.00000E+00 7.93640E-04 6.71389E+02 3.00000E-03
5.00000E+00 7.13737E-04 5.96091E+02 3.00000E-03
6.00000E+00 6.41880E-04 5.28374E+02 3.00000E-03
7.00000E+00 5.77259E-04 4.67474E+02 3.00000E-03
8.00000E+00 5.19144E-04 4.12705E+02 3.00000E-03
9.00000E+00 4.66882E-04 3.63450E+02 3.00000E-03
1.00000E+01 4.17504E-04 3.19183E+02 3.00000E-03
1.10000E+01 3.66988E-04 2.80013E+02 3.00000E-03
1.20000E+01 3.22584E-04 2.45582E+02 3.00000E-03
1.30000E+01 2.83553E-04 2.15317E+02 3.00000E-03
1.40000E+01 2.49245E-04 1.88714E+02 3.00000E-03
1.50000E+01 2.19088E-04 1.65330E+02 3.00000E-03
1.60000E+01 1.92580E-04 1.44775E+02 3.00000E-03
1.70000E+01 1.69279E-04 1.26707E+02 3.00000E-03
1.80000E+01 1.48797E-04 1.10826E+02 3.00000E-03
1.90000E+01 1.30794E-04 9.68654E+01 3.00000E-03
2.00000E+01 1.14969E-04 8.45942E+01 3.00000E-03
2.10000E+01 1.01059E-04 7.38077E+01 3.00000E-03
2.20000E+01 8.88322E-05 6.43263E+01 3.00000E-03
2.30000E+01 7.80844E-05 5.59920E+01 3.00000E-03
2.40000E+01 6.86371E-05 4.86661E+01 3.00000E-03
2.50000E+01 6.03329E-05 4.22265E+01 3.00000E-03
2.75000E+01 4.29793E-05 2.93695E+01 3.00000E-03
3.00000E+01 2.98017E-05 2.03722E+01 3.00000E-03
3.25000E+01 2.06672E-05 1.41332E+01 3.00000E-03
3.50000E+01 1.43344E-05 9.80619E+00 3.00000E-03
3.75000E+01 9.94342E-06 6.80488E+00 3.00000E-03
4.00000E+01 6.89840E-06 4.72281E+00 3.00000E-03
4.25000E+01 4.78650E-06 3.27826E+00 3.00000E-03
4.50000E+01 3.32158E-06 2.27589E+00 3.00000E-03
4.75000E+01 2.30529E-06 1.58025E+00 3.00000E-03
5.00000E+01 1.60016E-06 1.09743E+00 3.00000E-03
5.50000E+01 7.71265E-07 5.29578E-01 3.00000E-03
6.00000E+01 3.71930E-07 2.55820E-01 3.00000E-03
6.50000E+01 1.79445E-07 1.23776E-01 3.00000E-03
7.00000E+01 8.66193E-08 6.00545E-02 3.00000E-03
7.50000E+01 4.18315E-08 2.92895E-02 3.00000E-03
8.00000E+01 2.02114E-08 1.44288E-02 3.00000E-03
8.50000E+01 9.76992E-09 7.24729E-03 3.00000E-03
9.00000E+01 4.72479E-09 3.77513E-03 3.00000E-03
9.50000E+01 2.28595E-09 2.09565E-03 3.00000E-03
1.00000E+02 1.00000E-09 1.28292E-03 3.00000E-03
1.05000E+02 9.52381E-10 7.82920E-04 3.00000E-03
1.10000E+02 9.09091E-10 2.82920E-04 3.00000E-03
1.15000E+02 8.69565E-10 1.00000E-05 3.00000E-03
1.20000E+02 8.33333E-10 0.00000E+00 3.00000E-03
