# Atmospheric Model 5501202104
# Col. #1          #2           #3            #4
# Alt [km]    rho [g/cm^3] thick [g/cm^2]    n-1
0.00000E+00 1.16326E-03 1.05833E+03 3.00000E-03
1.00000E+00 1.05813E-03 9.47349E+02 3.00000E-03
2.00000E+00 9.62525E-04 8.46391E+02 3.00000E-03
3.00000E+00 8.75580E-04 7.54555E+02 3.00000E-03
4.00000E+00 7.94359E-04 6.71037E+02 3.00000E-03
5.00000E+00 7.14000E-04 5.95691E+02 3.00000E-03
6.00000E+00 6.41772E-04 5.27967E+02 3.00000E-03
7.00000E+00 5.76851E-04 4.67093E+02 3.00000E-03
8.00000E+00 5.18500E-04 4.12377E+02 3.00000E-03
9.00000E+00 4.66052E-04 3.63196E+02 3.00000E-03
1.00000E+01 4.16493E-04 3.19023E+02 3.00000E-03
1.10000E+01 3.66261E-04 2.79939E+02 3.00000E-03
1.20000E+01 3.22088E-04 2.45568E+02 3.00000E-03
1.30000E+01 2.83243E-04 2.15344E+02 3.00000E-03
1.40000E+01 2.49083E-04 1.88764E+02 3.00000E-03
1.50000E+01 2.19043E-04 1.65390E+02 3.00000E-03
1.60000E+01 1.92626E-04 1.44834E+02 3.00000E-03
1.70000E+01 1.69395E-04 1.26758E+02 3.00000E-03
1.80000E+01 1.48966E-04 1.10862E+02 3.00000E-03
1.90000E+01 1.31001E-04 9.68830E+01 3.00000E-03
2.00000E+01 1.15202E-04 8.45897E+01 3.00000E-03
2.10000E+01 1.01309E-04 7.37790E+01 3.00000E-03
2.20000E+01 8.90918E-05 6.42720E+01 3.00000E-03
2.30000E+01 7.83478E-05 5.59116E+01 3.00000E-03
2.40000E+01 6.88994E-05 4.85593E+01 3.00000E-03
2.50000E+01 6.05906E-05 4.20937E+01 3.00000E-03
2.75000E+01 4.31013E-05 2.91823E+01 3.00000E-03
3.00000E+01 2.97843E-05 2.01741E+01 3.00000E-03
3.25000E+01 2.05848E-05 1.39486E+01 3.00000E-03
3.50000E+01 1.42289E-05 9.64575E+00 3.00000E-03
3.75000E+01 9.83695E-06 6.67125E+00 3.00000E-03
4.00000E+01 6.80162E-06 4.61474E+00 3.00000E-03
4.25000E+01 4.70357E-06 3.19269E+00 3.00000E-03
4.50000E+01 3.25317E-06 2.20922E+00 3.00000E-03
4.75000E+01 2.25034E-06 1.52898E+00 3.00000E-03
5.00000E+01 1.55687E-06 1.05839E+00 3.00000E-03
5.50000E+01 7.45496E-07 5.07500E-01 3.00000E-03
6.00000E+01 3.57179E-07 2.43643E-01 3.00000E-03
6.50000E+01 1.71226E-07 1.17193E-01 3.00000E-03
7.00000E+01 8.21287E-08 5.65607E-02 3.00000E-03
7.50000E+01 3.94147E-08 2.74711E-02 3.00000E-03
8.00000E+01 1.89259E-08 1.35073E-02 3.00000E-03
8.50000E+01 9.09262E-09 6.80068E-03 3.00000E-03
9.00000E+01 4.37069E-09 3.57784E-03 3.00000E-03
9.50000E+01 2.10202E-09 2.02831E-03 3.00000E-03
1.00000E+02 1.00000E-09 1.28292E-03 3.00000E-03
1.05000E+02 9.52381E-10 7.82920E-04 3.00000E-03
1.10000E+02 9.09091E-10 2.82920E-04 3.00000E-03
1.15000E+02 8.69565E-10 1.00000E-05 3.00000E-03
1.20000E+02 8.33333E-10 0.00000E+00 3.00000E-03
