# Atmospheric Model 55012103
# Col. #1          #2           #3            #4
# Alt [km]    rho [g/cm^3] thick [g/cm^2]    n-1
0.00000E+00 1.16244E-03 1.05746E+03 3.00000E-03
1.00000E+00 1.05785E-03 9.46525E+02 3.00000E-03
2.00000E+00 9.62691E-04 8.45573E+02 3.00000E-03
3.00000E+00 8.76115E-04 7.53701E+02 3.00000E-03
4.00000E+00 7.95114E-04 6.70115E+02 3.00000E-03
5.00000E+00 7.14779E-04 5.94692E+02 3.00000E-03
6.00000E+00 6.42562E-04 5.26889E+02 3.00000E-03
7.00000E+00 5.77643E-04 4.65937E+02 3.00000E-03
8.00000E+00 5.19283E-04 4.11142E+02 3.00000E-03
9.00000E+00 4.66821E-04 3.61883E+02 3.00000E-03
1.00000E+01 4.16960E-04 3.17640E+02 3.00000E-03
1.10000E+01 3.66351E-04 2.78529E+02 3.00000E-03
1.20000E+01 3.21885E-04 2.44165E+02 3.00000E-03
1.30000E+01 2.82816E-04 2.13972E+02 3.00000E-03
1.40000E+01 2.48490E-04 1.87444E+02 3.00000E-03
1.50000E+01 2.18330E-04 1.64135E+02 3.00000E-03
1.60000E+01 1.91831E-04 1.43656E+02 3.00000E-03
1.70000E+01 1.68549E-04 1.25662E+02 3.00000E-03
1.80000E+01 1.48092E-04 1.09852E+02 3.00000E-03
1.90000E+01 1.30118E-04 9.59606E+01 3.00000E-03
2.00000E+01 1.14326E-04 8.37554E+01 3.00000E-03
2.10000E+01 1.00451E-04 7.30316E+01 3.00000E-03
2.20000E+01 8.82594E-05 6.36092E+01 3.00000E-03
2.30000E+01 7.75478E-05 5.53304E+01 3.00000E-03
2.40000E+01 6.81362E-05 4.80564E+01 3.00000E-03
2.50000E+01 5.98670E-05 4.16651E+01 3.00000E-03
2.75000E+01 4.25413E-05 2.89194E+01 3.00000E-03
3.00000E+01 2.94416E-05 2.00219E+01 3.00000E-03
3.25000E+01 2.03785E-05 1.38638E+01 3.00000E-03
3.50000E+01 1.41072E-05 9.60104E+00 3.00000E-03
3.75000E+01 9.76721E-06 6.64993E+00 3.00000E-03
4.00000E+01 6.76330E-06 4.60659E+00 3.00000E-03
4.25000E+01 4.68388E-06 3.19159E+00 3.00000E-03
4.50000E+01 3.24422E-06 2.21158E+00 3.00000E-03
4.75000E+01 2.24736E-06 1.53274E+00 3.00000E-03
5.00000E+01 1.55702E-06 1.06247E+00 3.00000E-03
5.50000E+01 7.47664E-07 5.10839E-01 3.00000E-03
6.00000E+01 3.59207E-07 2.45893E-01 3.00000E-03
6.50000E+01 1.72665E-07 1.18574E-01 3.00000E-03
7.00000E+01 8.30397E-08 5.73600E-02 3.00000E-03
7.50000E+01 3.99561E-08 2.79139E-02 3.00000E-03
8.00000E+01 1.92351E-08 1.37422E-02 3.00000E-03
8.50000E+01 9.26435E-09 6.91850E-03 3.00000E-03
9.00000E+01 4.46419E-09 3.63124E-03 3.00000E-03
9.50000E+01 2.15216E-09 2.04688E-03 3.00000E-03
1.00000E+02 1.00000E-09 1.28292E-03 3.00000E-03
1.05000E+02 9.52381E-10 7.82920E-04 3.00000E-03
1.10000E+02 9.09091E-10 2.82920E-04 3.00000E-03
1.15000E+02 8.69565E-10 1.00000E-05 3.00000E-03
1.20000E+02 8.33333E-10 0.00000E+00 3.00000E-03
