# Atmospheric Model 5501202106
# Col. #1          #2           #3            #4
# Alt [km]    rho [g/cm^3] thick [g/cm^2]    n-1
0.00000E+00 1.17289E-03 1.06047E+03 3.00000E-03
1.00000E+00 1.06512E-03 9.48660E+02 3.00000E-03
2.00000E+00 9.67273E-04 8.47119E+02 3.00000E-03
3.00000E+00 8.78448E-04 7.54905E+02 3.00000E-03
4.00000E+00 7.96055E-04 6.71176E+02 3.00000E-03
5.00000E+00 7.15588E-04 5.95665E+02 3.00000E-03
6.00000E+00 6.43256E-04 5.27787E+02 3.00000E-03
7.00000E+00 5.78238E-04 4.66770E+02 3.00000E-03
8.00000E+00 5.19793E-04 4.11920E+02 3.00000E-03
9.00000E+00 4.67256E-04 3.62615E+02 3.00000E-03
1.00000E+01 4.17513E-04 3.18326E+02 3.00000E-03
1.10000E+01 3.66821E-04 2.79164E+02 3.00000E-03
1.20000E+01 3.22285E-04 2.44756E+02 3.00000E-03
1.30000E+01 2.83155E-04 2.14526E+02 3.00000E-03
1.40000E+01 2.48777E-04 1.87967E+02 3.00000E-03
1.50000E+01 2.18573E-04 1.64632E+02 3.00000E-03
1.60000E+01 1.92037E-04 1.44130E+02 3.00000E-03
1.70000E+01 1.68722E-04 1.26117E+02 3.00000E-03
1.80000E+01 1.48238E-04 1.10291E+02 3.00000E-03
1.90000E+01 1.30241E-04 9.63868E+01 3.00000E-03
2.00000E+01 1.14429E-04 8.41704E+01 3.00000E-03
2.10000E+01 1.00537E-04 7.34371E+01 3.00000E-03
2.20000E+01 8.83314E-05 6.40068E+01 3.00000E-03
2.30000E+01 7.76078E-05 5.57215E+01 3.00000E-03
2.40000E+01 6.81861E-05 4.84419E+01 3.00000E-03
2.50000E+01 5.99083E-05 4.20461E+01 3.00000E-03
2.75000E+01 4.27122E-05 2.92801E+01 3.00000E-03
3.00000E+01 2.96526E-05 2.03336E+01 3.00000E-03
3.25000E+01 2.05884E-05 1.41223E+01 3.00000E-03
3.50000E+01 1.42964E-05 9.80946E+00 3.00000E-03
3.75000E+01 9.92843E-06 6.81449E+00 3.00000E-03
4.00000E+01 6.89573E-06 4.73446E+00 3.00000E-03
4.25000E+01 4.78989E-06 3.28973E+00 3.00000E-03
4.50000E+01 3.32749E-06 2.28614E+00 3.00000E-03
4.75000E+01 2.31182E-06 1.58892E+00 3.00000E-03
5.00000E+01 1.60633E-06 1.10449E+00 3.00000E-03
5.50000E+01 7.75765E-07 5.33958E-01 3.00000E-03
6.00000E+01 3.74801E-07 2.58373E-01 3.00000E-03
6.50000E+01 1.81152E-07 1.25205E-01 3.00000E-03
7.00000E+01 8.75897E-08 6.08300E-02 3.00000E-03
7.50000E+01 4.23671E-08 2.96984E-02 3.00000E-03
8.00000E+01 2.05006E-08 1.46375E-02 3.00000E-03
8.50000E+01 9.92351E-09 7.34870E-03 3.00000E-03
9.00000E+01 4.80529E-09 3.81992E-03 3.00000E-03
9.50000E+01 2.32770E-09 2.11090E-03 3.00000E-03
1.00000E+02 1.00000E-09 1.28292E-03 3.00000E-03
1.05000E+02 9.52381E-10 7.82920E-04 3.00000E-03
1.10000E+02 9.09091E-10 2.82920E-04 3.00000E-03
1.15000E+02 8.69565E-10 1.00000E-05 3.00000E-03
1.20000E+02 8.33333E-10 0.00000E+00 3.00000E-03
