# Atmospheric Model 91012108
# Col. #1          #2           #3            #4
# Alt [km]    rho [g/cm^3] thick [g/cm^2]    n-1
0.00000E+00 1.16689E-03 1.05793E+03 3.00000E-03
1.00000E+00 1.06184E-03 9.46579E+02 3.00000E-03
2.00000E+00 9.66251E-04 8.45250E+02 3.00000E-03
3.00000E+00 8.79272E-04 7.53042E+02 3.00000E-03
4.00000E+00 7.98271E-04 6.69153E+02 3.00000E-03
5.00000E+00 7.18073E-04 5.93407E+02 3.00000E-03
6.00000E+00 6.45934E-04 5.25270E+02 3.00000E-03
7.00000E+00 5.81045E-04 4.63979E+02 3.00000E-03
8.00000E+00 5.22676E-04 4.08844E+02 3.00000E-03
9.00000E+00 4.70173E-04 3.59248E+02 3.00000E-03
1.00000E+01 4.19757E-04 3.14681E+02 3.00000E-03
1.10000E+01 3.67839E-04 2.75358E+02 3.00000E-03
1.20000E+01 3.22344E-04 2.40899E+02 3.00000E-03
1.30000E+01 2.82477E-04 2.10702E+02 3.00000E-03
1.40000E+01 2.47541E-04 1.84239E+02 3.00000E-03
1.50000E+01 2.16927E-04 1.61049E+02 3.00000E-03
1.60000E+01 1.90100E-04 1.40727E+02 3.00000E-03
1.70000E+01 1.66591E-04 1.22919E+02 3.00000E-03
1.80000E+01 1.45990E-04 1.07312E+02 3.00000E-03
1.90000E+01 1.27937E-04 9.36358E+01 3.00000E-03
2.00000E+01 1.12117E-04 8.16505E+01 3.00000E-03
2.10000E+01 9.82535E-05 7.11472E+01 3.00000E-03
2.20000E+01 8.61045E-05 6.19427E+01 3.00000E-03
2.30000E+01 7.54580E-05 5.38763E+01 3.00000E-03
2.40000E+01 6.61282E-05 4.68072E+01 3.00000E-03
2.50000E+01 5.79521E-05 4.06122E+01 3.00000E-03
2.75000E+01 4.12096E-05 2.82906E+01 3.00000E-03
3.00000E+01 2.86241E-05 1.96568E+01 3.00000E-03
3.25000E+01 1.98845E-05 1.36595E+01 3.00000E-03
3.50000E+01 1.38149E-05 9.49304E+00 3.00000E-03
3.75000E+01 9.59904E-06 6.59824E+00 3.00000E-03
4.00000E+01 6.67049E-06 4.58672E+00 3.00000E-03
4.25000E+01 4.63591E-06 3.18883E+00 3.00000E-03
4.50000E+01 3.22226E-06 2.21725E+00 3.00000E-03
4.75000E+01 2.23993E-06 1.54191E+00 3.00000E-03
5.00000E+01 1.55723E-06 1.07243E+00 3.00000E-03
5.50000E+01 7.52892E-07 5.19063E-01 3.00000E-03
6.00000E+01 3.64162E-07 2.51471E-01 3.00000E-03
6.50000E+01 1.76212E-07 1.22017E-01 3.00000E-03
7.00000E+01 8.53013E-08 5.93649E-02 3.00000E-03
7.50000E+01 4.13093E-08 2.90309E-02 3.00000E-03
8.00000E+01 2.00129E-08 1.43383E-02 3.00000E-03
8.50000E+01 9.69931E-09 7.21903E-03 3.00000E-03
9.00000E+01 4.70257E-09 3.76809E-03 3.00000E-03
9.50000E+01 2.28082E-09 2.09468E-03 3.00000E-03
1.00000E+02 1.00000E-09 1.28292E-03 3.00000E-03
1.05000E+02 9.52381E-10 7.82920E-04 3.00000E-03
1.10000E+02 9.09091E-10 2.82920E-04 3.00000E-03
1.15000E+02 8.69565E-10 1.00000E-05 3.00000E-03
1.20000E+02 8.33333E-10 0.00000E+00 3.00000E-03
