# Atmospheric Model 54032108
# Col. #1          #2           #3            #4
# Alt [km]    rho [g/cm^3] thick [g/cm^2]    n-1
0.00000E+00 1.24115E-03 1.05267E+03 3.00000E-03
1.00000E+00 1.11637E-03 9.34901E+02 3.00000E-03
2.00000E+00 1.00417E-03 8.28974E+02 3.00000E-03
3.00000E+00 9.03261E-04 7.33691E+02 3.00000E-03
4.00000E+00 8.12371E-04 6.47989E+02 3.00000E-03
5.00000E+00 7.31075E-04 5.70888E+02 3.00000E-03
6.00000E+00 6.57928E-04 5.01502E+02 3.00000E-03
7.00000E+00 5.92111E-04 4.39058E+02 3.00000E-03
8.00000E+00 5.32889E-04 3.82860E+02 3.00000E-03
9.00000E+00 4.79599E-04 3.32283E+02 3.00000E-03
1.00000E+01 4.20104E-04 2.87164E+02 3.00000E-03
1.10000E+01 3.62774E-04 2.48091E+02 3.00000E-03
1.20000E+01 3.13272E-04 2.14349E+02 3.00000E-03
1.30000E+01 2.70529E-04 1.85211E+02 3.00000E-03
1.40000E+01 2.33622E-04 1.60049E+02 3.00000E-03
1.50000E+01 2.01752E-04 1.38319E+02 3.00000E-03
1.60000E+01 1.74233E-04 1.19553E+02 3.00000E-03
1.70000E+01 1.50470E-04 1.03347E+02 3.00000E-03
1.80000E+01 1.29950E-04 8.93514E+01 3.00000E-03
1.90000E+01 1.12229E-04 7.72641E+01 3.00000E-03
2.00000E+01 9.69271E-05 6.68250E+01 3.00000E-03
2.10000E+01 8.37126E-05 5.78092E+01 3.00000E-03
2.20000E+01 7.23007E-05 5.00224E+01 3.00000E-03
2.30000E+01 6.24455E-05 4.32972E+01 3.00000E-03
2.40000E+01 5.39344E-05 3.74886E+01 3.00000E-03
2.50000E+01 4.65841E-05 3.24716E+01 3.00000E-03
2.75000E+01 3.24112E-05 2.27145E+01 3.00000E-03
3.00000E+01 2.26855E-05 1.58996E+01 3.00000E-03
3.25000E+01 1.58785E-05 1.11296E+01 3.00000E-03
3.50000E+01 1.11143E-05 7.79083E+00 3.00000E-03
3.75000E+01 7.77966E-06 5.45382E+00 3.00000E-03
4.00000E+01 5.44564E-06 3.81797E+00 3.00000E-03
4.25000E+01 3.81194E-06 2.67288E+00 3.00000E-03
4.50000E+01 2.66841E-06 1.87132E+00 3.00000E-03
4.75000E+01 1.86796E-06 1.31021E+00 3.00000E-03
5.00000E+01 1.30765E-06 9.17415E-01 3.00000E-03
5.50000E+01 6.40859E-07 4.49940E-01 3.00000E-03
6.00000E+01 3.14101E-07 2.20829E-01 3.00000E-03
6.50000E+01 1.53960E-07 1.08532E-01 3.00000E-03
7.00000E+01 7.54714E-08 5.34870E-02 3.00000E-03
7.50000E+01 3.69989E-08 2.65027E-02 3.00000E-03
8.00000E+01 1.81396E-08 1.32736E-02 3.00000E-03
8.50000E+01 8.89405E-09 6.78752E-03 3.00000E-03
9.00000E+01 4.36117E-09 3.60721E-03 3.00000E-03
9.50000E+01 2.13864E-09 2.04770E-03 3.00000E-03
1.00000E+02 1.00000E-09 1.28292E-03 3.00000E-03
1.05000E+02 9.52381E-10 7.82920E-04 3.00000E-03
1.10000E+02 9.09091E-10 2.82920E-04 3.00000E-03
1.15000E+02 8.69565E-10 1.00000E-05 3.00000E-03
1.20000E+02 8.33333E-10 0.00000E+00 3.00000E-03
