# Atmospheric Model 54032105
# Col. #1          #2           #3            #4
# Alt [km]    rho [g/cm^3] thick [g/cm^2]    n-1
0.00000E+00 1.23339E-03 1.05234E+03 3.00000E-03
1.00000E+00 1.11037E-03 9.35262E+02 3.00000E-03
2.00000E+00 9.99635E-04 8.29858E+02 3.00000E-03
3.00000E+00 8.99948E-04 7.34966E+02 3.00000E-03
4.00000E+00 8.09729E-04 6.49548E+02 3.00000E-03
5.00000E+00 7.28065E-04 5.72731E+02 3.00000E-03
6.00000E+00 6.54643E-04 5.03660E+02 3.00000E-03
7.00000E+00 5.88633E-04 4.41555E+02 3.00000E-03
8.00000E+00 5.29285E-04 3.85712E+02 3.00000E-03
9.00000E+00 4.75926E-04 3.35499E+02 3.00000E-03
1.00000E+01 4.17728E-04 2.90694E+02 3.00000E-03
1.10000E+01 3.61778E-04 2.51786E+02 3.00000E-03
1.20000E+01 3.13325E-04 2.18089E+02 3.00000E-03
1.30000E+01 2.71364E-04 1.88905E+02 3.00000E-03
1.40000E+01 2.35025E-04 1.63629E+02 3.00000E-03
1.50000E+01 2.03555E-04 1.41738E+02 3.00000E-03
1.60000E+01 1.76300E-04 1.22778E+02 3.00000E-03
1.70000E+01 1.52697E-04 1.06356E+02 3.00000E-03
1.80000E+01 1.32255E-04 9.21329E+01 3.00000E-03
1.90000E+01 1.14551E-04 7.98139E+01 3.00000E-03
2.00000E+01 9.92175E-05 6.91438E+01 3.00000E-03
2.10000E+01 8.59377E-05 5.99020E+01 3.00000E-03
2.20000E+01 7.44362E-05 5.18970E+01 3.00000E-03
2.30000E+01 6.44747E-05 4.49634E+01 3.00000E-03
2.40000E+01 5.58469E-05 3.89577E+01 3.00000E-03
2.50000E+01 4.83742E-05 3.37556E+01 3.00000E-03
2.75000E+01 3.37948E-05 2.35943E+01 3.00000E-03
3.00000E+01 2.36215E-05 1.64930E+01 3.00000E-03
3.25000E+01 1.65111E-05 1.15294E+01 3.00000E-03
3.50000E+01 1.15414E-05 8.05985E+00 3.00000E-03
3.75000E+01 8.06768E-06 5.63458E+00 3.00000E-03
4.00000E+01 5.63964E-06 3.93924E+00 3.00000E-03
4.25000E+01 3.94244E-06 2.75412E+00 3.00000E-03
4.50000E+01 2.75606E-06 1.92564E+00 3.00000E-03
4.75000E+01 1.92675E-06 1.34646E+00 3.00000E-03
5.00000E+01 1.34701E-06 9.41554E-01 3.00000E-03
5.50000E+01 6.58409E-07 4.60568E-01 3.00000E-03
6.00000E+01 3.21858E-07 2.25455E-01 3.00000E-03
6.50000E+01 1.57353E-07 1.10517E-01 3.00000E-03
7.00000E+01 7.69361E-08 5.43227E-02 3.00000E-03
7.50000E+01 3.76208E-08 2.68458E-02 3.00000E-03
8.00000E+01 1.83979E-08 1.34093E-02 3.00000E-03
8.50000E+01 8.99810E-09 6.83812E-03 3.00000E-03
9.00000E+01 4.40125E-09 3.62413E-03 3.00000E-03
9.50000E+01 2.15299E-09 2.05200E-03 3.00000E-03
1.00000E+02 1.00000E-09 1.28292E-03 3.00000E-03
1.05000E+02 9.52381E-10 7.82920E-04 3.00000E-03
1.10000E+02 9.09091E-10 2.82920E-04 3.00000E-03
1.15000E+02 8.69565E-10 1.00000E-05 3.00000E-03
1.20000E+02 8.33333E-10 0.00000E+00 3.00000E-03
