# Atmospheric Model 93012103
# Col. #1          #2           #3            #4
# Alt [km]    rho [g/cm^3] thick [g/cm^2]    n-1
0.00000E+00 1.15347E-03 1.05408E+03 3.00000E-03
1.00000E+00 1.04980E-03 9.43999E+02 3.00000E-03
2.00000E+00 9.55456E-04 8.43810E+02 3.00000E-03
3.00000E+00 8.69588E-04 7.52625E+02 3.00000E-03
4.00000E+00 7.89468E-04 6.69658E+02 3.00000E-03
5.00000E+00 7.10904E-04 5.94708E+02 3.00000E-03
6.00000E+00 6.40160E-04 5.27217E+02 3.00000E-03
7.00000E+00 5.76457E-04 4.66442E+02 3.00000E-03
8.00000E+00 5.19095E-04 4.11714E+02 3.00000E-03
9.00000E+00 4.67441E-04 3.62432E+02 3.00000E-03
1.00000E+01 4.18026E-04 3.18095E+02 3.00000E-03
1.10000E+01 3.67189E-04 2.78890E+02 3.00000E-03
1.20000E+01 3.22534E-04 2.44452E+02 3.00000E-03
1.30000E+01 2.83311E-04 2.14202E+02 3.00000E-03
1.40000E+01 2.48857E-04 1.87631E+02 3.00000E-03
1.50000E+01 2.18594E-04 1.64291E+02 3.00000E-03
1.60000E+01 1.92011E-04 1.43789E+02 3.00000E-03
1.70000E+01 1.68661E-04 1.25781E+02 3.00000E-03
1.80000E+01 1.48151E-04 1.09962E+02 3.00000E-03
1.90000E+01 1.30135E-04 9.60676E+01 3.00000E-03
2.00000E+01 1.14310E-04 8.38624E+01 3.00000E-03
2.10000E+01 1.00410E-04 7.31414E+01 3.00000E-03
2.20000E+01 8.81995E-05 6.37242E+01 3.00000E-03
2.30000E+01 7.74743E-05 5.54521E+01 3.00000E-03
2.40000E+01 6.80534E-05 4.81858E+01 3.00000E-03
2.50000E+01 5.97781E-05 4.18032E+01 3.00000E-03
2.75000E+01 4.24981E-05 2.90781E+01 3.00000E-03
3.00000E+01 2.94822E-05 2.01796E+01 3.00000E-03
3.25000E+01 2.04554E-05 1.40061E+01 3.00000E-03
3.50000E+01 1.41942E-05 9.72249E+00 3.00000E-03
3.75000E+01 9.85079E-06 6.74988E+00 3.00000E-03
4.00000E+01 6.83732E-06 4.68676E+00 3.00000E-03
4.25000E+01 4.74630E-06 3.25469E+00 3.00000E-03
4.50000E+01 3.29518E-06 2.26052E+00 3.00000E-03
4.75000E+01 2.28801E-06 1.57027E+00 3.00000E-03
5.00000E+01 1.58887E-06 1.09096E+00 3.00000E-03
5.50000E+01 7.66493E-07 5.26906E-01 3.00000E-03
6.00000E+01 3.69944E-07 2.54738E-01 3.00000E-03
6.50000E+01 1.78636E-07 1.23351E-01 3.00000E-03
7.00000E+01 8.62980E-08 5.98944E-02 3.00000E-03
7.50000E+01 4.17089E-08 2.92329E-02 3.00000E-03
8.00000E+01 2.01674E-08 1.44109E-02 3.00000E-03
8.50000E+01 9.75570E-09 7.24268E-03 3.00000E-03
9.00000E+01 4.72120E-09 3.77451E-03 3.00000E-03
9.50000E+01 2.28574E-09 2.09580E-03 3.00000E-03
1.00000E+02 1.00000E-09 1.28292E-03 3.00000E-03
1.05000E+02 9.52381E-10 7.82920E-04 3.00000E-03
1.10000E+02 9.09091E-10 2.82920E-04 3.00000E-03
1.15000E+02 8.69565E-10 1.00000E-05 3.00000E-03
1.20000E+02 8.33333E-10 0.00000E+00 3.00000E-03
