# Atmospheric Model 4801202103
# Col. #1          #2           #3            #4
# Alt [km]    rho [g/cm^3] thick [g/cm^2]    n-1
0.00000E+00 1.27533E-03 1.04578E+03 3.00000E-03
1.00000E+00 1.14864E-03 9.24695E+02 3.00000E-03
2.00000E+00 1.03456E-03 8.15634E+02 3.00000E-03
3.00000E+00 9.31837E-04 7.17404E+02 3.00000E-03
4.00000E+00 8.35556E-04 6.29029E+02 3.00000E-03
5.00000E+00 7.46254E-04 5.50023E+02 3.00000E-03
6.00000E+00 6.66521E-04 4.79459E+02 3.00000E-03
7.00000E+00 5.95329E-04 4.16434E+02 3.00000E-03
8.00000E+00 5.31759E-04 3.60139E+02 3.00000E-03
9.00000E+00 4.72850E-04 3.09881E+02 3.00000E-03
1.00000E+01 4.06522E-04 2.65944E+02 3.00000E-03
1.10000E+01 3.48438E-04 2.28271E+02 3.00000E-03
1.20000E+01 2.98660E-04 1.95980E+02 3.00000E-03
1.30000E+01 2.56001E-04 1.68302E+02 3.00000E-03
1.40000E+01 2.19440E-04 1.44577E+02 3.00000E-03
1.50000E+01 1.88106E-04 1.24240E+02 3.00000E-03
1.60000E+01 1.61250E-04 1.06807E+02 3.00000E-03
1.70000E+01 1.38232E-04 9.18622E+01 3.00000E-03
1.80000E+01 1.18502E-04 7.90509E+01 3.00000E-03
1.90000E+01 1.01592E-04 6.80679E+01 3.00000E-03
2.00000E+01 8.70962E-05 5.86521E+01 3.00000E-03
2.10000E+01 7.46711E-05 5.05797E+01 3.00000E-03
2.20000E+01 6.40202E-05 4.36588E+01 3.00000E-03
2.30000E+01 5.48899E-05 3.77250E+01 3.00000E-03
2.40000E+01 4.70629E-05 3.26374E+01 3.00000E-03
2.50000E+01 4.03531E-05 2.82752E+01 3.00000E-03
2.75000E+01 2.79922E-05 1.98583E+01 3.00000E-03
3.00000E+01 1.96779E-05 1.39604E+01 3.00000E-03
3.25000E+01 1.38333E-05 9.81435E+00 3.00000E-03
3.50000E+01 9.72466E-06 6.89971E+00 3.00000E-03
3.75000E+01 6.83640E-06 4.85074E+00 3.00000E-03
4.00000E+01 4.80600E-06 3.41032E+00 3.00000E-03
4.25000E+01 3.37865E-06 2.39770E+00 3.00000E-03
4.50000E+01 2.37523E-06 1.68581E+00 3.00000E-03
4.75000E+01 1.66983E-06 1.18535E+00 3.00000E-03
5.00000E+01 1.17393E-06 8.33510E-01 3.00000E-03
5.50000E+01 5.80218E-07 4.12265E-01 3.00000E-03
6.00000E+01 2.86784E-07 2.04060E-01 3.00000E-03
6.50000E+01 1.41752E-07 1.01150E-01 3.00000E-03
7.00000E+01 7.00681E-08 5.02819E-02 3.00000E-03
7.50000E+01 3.46356E-08 2.51378E-02 3.00000E-03
8.00000E+01 1.71214E-08 1.27085E-02 3.00000E-03
8.50000E+01 8.46385E-09 6.56426E-03 3.00000E-03
9.00000E+01 4.18418E-09 3.52686E-03 3.00000E-03
9.50000E+01 2.06855E-09 2.02527E-03 3.00000E-03
1.00000E+02 1.00000E-09 1.28292E-03 3.00000E-03
1.05000E+02 9.52381E-10 7.82920E-04 3.00000E-03
1.10000E+02 9.09091E-10 2.82920E-04 3.00000E-03
1.15000E+02 8.69565E-10 1.00000E-05 3.00000E-03
1.20000E+02 8.33333E-10 0.00000E+00 3.00000E-03
