# Atmospheric Model 4801202101
# Col. #1          #2           #3            #4
# Alt [km]    rho [g/cm^3] thick [g/cm^2]    n-1
0.00000E+00 1.26302E-03 1.03857E+03 3.00000E-03
1.00000E+00 1.13541E-03 9.18764E+02 3.00000E-03
2.00000E+00 1.02074E-03 8.11059E+02 3.00000E-03
3.00000E+00 9.17700E-04 7.14229E+02 3.00000E-03
4.00000E+00 8.23642E-04 6.27213E+02 3.00000E-03
5.00000E+00 7.37772E-04 5.49222E+02 3.00000E-03
6.00000E+00 6.60871E-04 4.79360E+02 3.00000E-03
7.00000E+00 5.92000E-04 4.16780E+02 3.00000E-03
8.00000E+00 5.30321E-04 3.60721E+02 3.00000E-03
9.00000E+00 4.71418E-04 3.10549E+02 3.00000E-03
1.00000E+01 4.05900E-04 2.66728E+02 3.00000E-03
1.10000E+01 3.48073E-04 2.29103E+02 3.00000E-03
1.20000E+01 2.98503E-04 1.96838E+02 3.00000E-03
1.30000E+01 2.56007E-04 1.69167E+02 3.00000E-03
1.40000E+01 2.19575E-04 1.45434E+02 3.00000E-03
1.50000E+01 1.88340E-04 1.25079E+02 3.00000E-03
1.60000E+01 1.61558E-04 1.07618E+02 3.00000E-03
1.70000E+01 1.38593E-04 9.26400E+01 3.00000E-03
1.80000E+01 1.18900E-04 7.97906E+01 3.00000E-03
1.90000E+01 1.02012E-04 6.87666E+01 3.00000E-03
2.00000E+01 8.75281E-05 5.93081E+01 3.00000E-03
2.10000E+01 7.51057E-05 5.11923E+01 3.00000E-03
2.20000E+01 6.44505E-05 4.42281E+01 3.00000E-03
2.30000E+01 5.53106E-05 3.82518E+01 3.00000E-03
2.40000E+01 4.74699E-05 3.31227E+01 3.00000E-03
2.50000E+01 4.07435E-05 2.87207E+01 3.00000E-03
2.75000E+01 2.85063E-05 2.01729E+01 3.00000E-03
3.00000E+01 2.00209E-05 1.41694E+01 3.00000E-03
3.25000E+01 1.40617E-05 9.95284E+00 3.00000E-03
3.50000E+01 9.87657E-06 6.99130E+00 3.00000E-03
3.75000E+01 6.93722E-06 4.91117E+00 3.00000E-03
4.00000E+01 4.87278E-06 3.45008E+00 3.00000E-03
4.25000E+01 3.42278E-06 2.42379E+00 3.00000E-03
4.50000E+01 2.40433E-06 1.70288E+00 3.00000E-03
4.75000E+01 1.68896E-06 1.19647E+00 3.00000E-03
5.00000E+01 1.18647E-06 8.40728E-01 3.00000E-03
5.50000E+01 5.85553E-07 4.15262E-01 3.00000E-03
6.00000E+01 2.89014E-07 2.05275E-01 3.00000E-03
6.50000E+01 1.42665E-07 1.01625E-01 3.00000E-03
7.00000E+01 7.04297E-08 5.04592E-02 3.00000E-03
7.50000E+01 3.47726E-08 2.51989E-02 3.00000E-03
8.00000E+01 1.71696E-08 1.27268E-02 3.00000E-03
8.50000E+01 8.47859E-09 6.56817E-03 3.00000E-03
9.00000E+01 4.18723E-09 3.52685E-03 3.00000E-03
9.50000E+01 2.06809E-09 2.02481E-03 3.00000E-03
1.00000E+02 1.00000E-09 1.28292E-03 3.00000E-03
1.05000E+02 9.52381E-10 7.82920E-04 3.00000E-03
1.10000E+02 9.09091E-10 2.82920E-04 3.00000E-03
1.15000E+02 8.69565E-10 1.00000E-05 3.00000E-03
1.20000E+02 8.33333E-10 0.00000E+00 3.00000E-03
