# Atmospheric Model 4801202108
# Col. #1          #2           #3            #4
# Alt [km]    rho [g/cm^3] thick [g/cm^2]    n-1
0.00000E+00 1.20835E-03 1.04124E+03 3.00000E-03
1.00000E+00 1.09521E-03 9.26156E+02 3.00000E-03
2.00000E+00 9.92675E-04 8.21846E+02 3.00000E-03
3.00000E+00 8.99745E-04 7.27301E+02 3.00000E-03
4.00000E+00 8.12602E-04 6.41659E+02 3.00000E-03
5.00000E+00 7.28933E-04 5.64658E+02 3.00000E-03
6.00000E+00 6.53881E-04 4.95585E+02 3.00000E-03
7.00000E+00 5.86558E-04 4.33624E+02 3.00000E-03
8.00000E+00 5.26168E-04 3.78043E+02 3.00000E-03
9.00000E+00 4.71996E-04 3.28184E+02 3.00000E-03
1.00000E+01 4.12949E-04 2.83829E+02 3.00000E-03
1.10000E+01 3.56915E-04 2.45404E+02 3.00000E-03
1.20000E+01 3.08490E-04 2.12193E+02 3.00000E-03
1.30000E+01 2.66640E-04 1.83487E+02 3.00000E-03
1.40000E+01 2.30472E-04 1.58676E+02 3.00000E-03
1.50000E+01 1.99214E-04 1.37229E+02 3.00000E-03
1.60000E+01 1.72199E-04 1.18691E+02 3.00000E-03
1.70000E+01 1.48850E-04 1.02667E+02 3.00000E-03
1.80000E+01 1.28669E-04 8.88160E+01 3.00000E-03
1.90000E+01 1.11227E-04 7.68424E+01 3.00000E-03
2.00000E+01 9.61504E-05 6.64919E+01 3.00000E-03
2.10000E+01 8.31193E-05 5.75442E+01 3.00000E-03
2.20000E+01 7.18557E-05 4.98092E+01 3.00000E-03
2.30000E+01 6.21196E-05 4.31222E+01 3.00000E-03
2.40000E+01 5.37037E-05 3.73413E+01 3.00000E-03
2.50000E+01 4.64289E-05 3.23435E+01 3.00000E-03
2.75000E+01 3.23067E-05 2.26126E+01 3.00000E-03
3.00000E+01 2.26024E-05 1.58210E+01 3.00000E-03
3.25000E+01 1.58133E-05 1.10694E+01 3.00000E-03
3.50000E+01 1.10636E-05 7.74509E+00 3.00000E-03
3.75000E+01 7.74067E-06 5.41923E+00 3.00000E-03
4.00000E+01 5.41583E-06 3.79193E+00 3.00000E-03
4.25000E+01 3.78929E-06 2.65337E+00 3.00000E-03
4.50000E+01 2.65129E-06 1.85675E+00 3.00000E-03
4.75000E+01 1.85508E-06 1.29936E+00 3.00000E-03
5.00000E+01 1.29799E-06 9.09366E-01 3.00000E-03
5.50000E+01 6.35496E-07 4.45544E-01 3.00000E-03
6.00000E+01 3.11154E-07 2.18453E-01 3.00000E-03
6.50000E+01 1.52357E-07 1.07260E-01 3.00000E-03
7.00000E+01 7.46059E-08 5.28133E-02 3.00000E-03
7.50000E+01 3.65348E-08 2.61512E-02 3.00000E-03
8.00000E+01 1.78922E-08 1.30944E-02 3.00000E-03
8.50000E+01 8.76280E-09 6.69999E-03 3.00000E-03
9.00000E+01 4.29185E-09 3.56819E-03 3.00000E-03
9.50000E+01 2.10218E-09 2.03427E-03 3.00000E-03
1.00000E+02 1.00000E-09 1.28292E-03 3.00000E-03
1.05000E+02 9.52381E-10 7.82920E-04 3.00000E-03
1.10000E+02 9.09091E-10 2.82920E-04 3.00000E-03
1.15000E+02 8.69565E-10 1.00000E-05 3.00000E-03
1.20000E+02 8.33333E-10 0.00000E+00 3.00000E-03
