# Atmospheric Model 48012104
# Col. #1          #2           #3            #4
# Alt [km]    rho [g/cm^3] thick [g/cm^2]    n-1
0.00000E+00 1.26463E-03 1.04052E+03 3.00000E-03
1.00000E+00 1.14091E-03 9.20350E+02 3.00000E-03
2.00000E+00 1.02931E-03 8.11936E+02 3.00000E-03
3.00000E+00 9.28642E-04 7.14124E+02 3.00000E-03
4.00000E+00 8.33618E-04 6.25988E+02 3.00000E-03
5.00000E+00 7.44546E-04 5.47164E+02 3.00000E-03
6.00000E+00 6.65007E-04 4.76761E+02 3.00000E-03
7.00000E+00 5.93980E-04 4.13879E+02 3.00000E-03
8.00000E+00 5.30551E-04 3.57712E+02 3.00000E-03
9.00000E+00 4.72567E-04 3.07562E+02 3.00000E-03
1.00000E+01 4.05248E-04 2.63732E+02 3.00000E-03
1.10000E+01 3.47082E-04 2.26190E+02 3.00000E-03
1.20000E+01 2.97270E-04 1.94037E+02 3.00000E-03
1.30000E+01 2.54611E-04 1.66498E+02 3.00000E-03
1.40000E+01 2.18077E-04 1.42911E+02 3.00000E-03
1.50000E+01 1.86788E-04 1.22708E+02 3.00000E-03
1.60000E+01 1.59991E-04 1.05404E+02 3.00000E-03
1.70000E+01 1.37041E-04 9.05819E+01 3.00000E-03
1.80000E+01 1.17384E-04 7.78860E+01 3.00000E-03
1.90000E+01 1.00549E-04 6.70111E+01 3.00000E-03
2.00000E+01 8.61295E-05 5.76958E+01 3.00000E-03
2.10000E+01 7.37791E-05 4.97163E+01 3.00000E-03
2.20000E+01 6.32006E-05 4.28809E+01 3.00000E-03
2.30000E+01 5.41398E-05 3.70256E+01 3.00000E-03
2.40000E+01 4.63787E-05 3.20097E+01 3.00000E-03
2.50000E+01 3.97308E-05 2.77128E+01 3.00000E-03
2.75000E+01 2.74197E-05 1.94487E+01 3.00000E-03
3.00000E+01 1.92745E-05 1.36716E+01 3.00000E-03
3.25000E+01 1.35489E-05 9.61062E+00 3.00000E-03
3.50000E+01 9.52416E-06 6.75598E+00 3.00000E-03
3.75000E+01 6.69500E-06 4.74932E+00 3.00000E-03
4.00000E+01 4.70626E-06 3.33874E+00 3.00000E-03
4.25000E+01 3.30828E-06 2.34716E+00 3.00000E-03
4.50000E+01 2.32557E-06 1.65013E+00 3.00000E-03
4.75000E+01 1.63478E-06 1.16015E+00 3.00000E-03
5.00000E+01 1.14918E-06 8.15716E-01 3.00000E-03
5.50000E+01 5.67873E-07 4.03387E-01 3.00000E-03
6.00000E+01 2.80620E-07 1.99632E-01 3.00000E-03
6.50000E+01 1.38673E-07 9.89435E-02 3.00000E-03
7.00000E+01 6.85282E-08 4.91865E-02 3.00000E-03
7.50000E+01 3.38650E-08 2.45979E-02 3.00000E-03
8.00000E+01 1.67355E-08 1.24467E-02 3.00000E-03
8.50000E+01 8.27047E-09 6.44183E-03 3.00000E-03
9.00000E+01 4.08721E-09 3.47426E-03 3.00000E-03
9.50000E+01 2.01989E-09 2.00770E-03 3.00000E-03
1.00000E+02 1.00000E-09 1.28292E-03 3.00000E-03
1.05000E+02 9.52381E-10 7.82920E-04 3.00000E-03
1.10000E+02 9.09091E-10 2.82920E-04 3.00000E-03
1.15000E+02 8.69565E-10 1.00000E-05 3.00000E-03
1.20000E+02 8.33333E-10 0.00000E+00 3.00000E-03
