# Atmospheric Model 48012107
# Col. #1          #2           #3            #4
# Alt [km]    rho [g/cm^3] thick [g/cm^2]    n-1
0.00000E+00 1.19540E-03 1.04417E+03 3.00000E-03
1.00000E+00 1.08399E-03 9.30296E+02 3.00000E-03
2.00000E+00 9.82978E-04 8.27030E+02 3.00000E-03
3.00000E+00 8.91386E-04 7.33386E+02 3.00000E-03
4.00000E+00 8.05909E-04 6.48506E+02 3.00000E-03
5.00000E+00 7.23687E-04 5.72100E+02 3.00000E-03
6.00000E+00 6.49855E-04 5.03489E+02 3.00000E-03
7.00000E+00 5.83557E-04 4.41878E+02 3.00000E-03
8.00000E+00 5.24024E-04 3.86552E+02 3.00000E-03
9.00000E+00 4.70566E-04 3.36870E+02 3.00000E-03
1.00000E+01 4.14912E-04 2.92470E+02 3.00000E-03
1.10000E+01 3.60082E-04 2.53785E+02 3.00000E-03
1.20000E+01 3.12500E-04 2.20212E+02 3.00000E-03
1.30000E+01 2.71208E-04 1.91076E+02 3.00000E-03
1.40000E+01 2.35373E-04 1.65789E+02 3.00000E-03
1.50000E+01 2.04274E-04 1.43843E+02 3.00000E-03
1.60000E+01 1.77285E-04 1.24797E+02 3.00000E-03
1.70000E+01 1.53863E-04 1.08267E+02 3.00000E-03
1.80000E+01 1.33537E-04 9.39214E+01 3.00000E-03
1.90000E+01 1.15896E-04 8.14706E+01 3.00000E-03
2.00000E+01 1.00587E-04 7.06645E+01 3.00000E-03
2.10000E+01 8.73000E-05 6.12859E+01 3.00000E-03
2.20000E+01 7.57689E-05 5.31460E+01 3.00000E-03
2.30000E+01 6.57613E-05 4.60813E+01 3.00000E-03
2.40000E+01 5.70759E-05 3.99497E+01 3.00000E-03
2.50000E+01 4.95379E-05 3.46279E+01 3.00000E-03
2.75000E+01 3.47449E-05 2.41990E+01 3.00000E-03
3.00000E+01 2.42647E-05 1.69010E+01 3.00000E-03
3.25000E+01 1.69461E-05 1.18043E+01 3.00000E-03
3.50000E+01 1.18351E-05 8.24477E+00 3.00000E-03
3.75000E+01 8.26584E-06 5.75879E+00 3.00000E-03
4.00000E+01 5.77311E-06 4.02252E+00 3.00000E-03
4.25000E+01 4.03220E-06 2.80985E+00 3.00000E-03
4.50000E+01 2.81634E-06 1.96286E+00 3.00000E-03
4.75000E+01 1.96715E-06 1.37126E+00 3.00000E-03
5.00000E+01 1.37404E-06 9.58034E-01 3.00000E-03
5.50000E+01 6.70423E-07 4.67782E-01 3.00000E-03
6.00000E+01 3.27143E-07 2.28568E-01 3.00000E-03
6.50000E+01 1.59648E-07 1.11836E-01 3.00000E-03
7.00000E+01 7.79157E-08 5.48677E-02 3.00000E-03
7.50000E+01 3.80298E-08 2.70634E-02 3.00000E-03
8.00000E+01 1.85635E-08 1.34920E-02 3.00000E-03
8.50000E+01 9.06212E-09 6.86709E-03 3.00000E-03
9.00000E+01 4.42422E-09 3.63291E-03 3.00000E-03
9.50000E+01 2.16012E-09 2.05390E-03 3.00000E-03
1.00000E+02 1.00000E-09 1.28292E-03 3.00000E-03
1.05000E+02 9.52381E-10 7.82920E-04 3.00000E-03
1.10000E+02 9.09091E-10 2.82920E-04 3.00000E-03
1.15000E+02 8.69565E-10 1.00000E-05 3.00000E-03
1.20000E+02 8.33333E-10 0.00000E+00 3.00000E-03
