# Atmospheric Model 51012105
# Col. #1          #2           #3            #4
# Alt [km]    rho [g/cm^3] thick [g/cm^2]    n-1
0.00000E+00 1.14632E-03 1.04949E+03 3.00000E-03
1.00000E+00 1.04288E-03 9.40108E+02 3.00000E-03
2.00000E+00 9.48778E-04 8.40599E+02 3.00000E-03
3.00000E+00 8.63166E-04 7.50069E+02 3.00000E-03
4.00000E+00 7.84210E-04 6.67718E+02 3.00000E-03
5.00000E+00 7.08344E-04 5.93155E+02 3.00000E-03
6.00000E+00 6.39830E-04 5.25805E+02 3.00000E-03
7.00000E+00 5.77955E-04 4.64968E+02 3.00000E-03
8.00000E+00 5.22073E-04 4.10014E+02 3.00000E-03
9.00000E+00 4.71604E-04 3.60373E+02 3.00000E-03
1.00000E+01 4.22378E-04 3.15582E+02 3.00000E-03
1.10000E+01 3.69985E-04 2.76021E+02 3.00000E-03
1.20000E+01 3.24092E-04 2.41368E+02 3.00000E-03
1.30000E+01 2.83893E-04 2.11013E+02 3.00000E-03
1.40000E+01 2.48682E-04 1.84423E+02 3.00000E-03
1.50000E+01 2.17839E-04 1.61131E+02 3.00000E-03
1.60000E+01 1.90822E-04 1.40728E+02 3.00000E-03
1.70000E+01 1.67156E-04 1.22855E+02 3.00000E-03
1.80000E+01 1.46426E-04 1.07199E+02 3.00000E-03
1.90000E+01 1.28268E-04 9.34846E+01 3.00000E-03
2.00000E+01 1.12361E-04 8.14707E+01 3.00000E-03
2.10000E+01 9.84282E-05 7.09466E+01 3.00000E-03
2.20000E+01 8.62232E-05 6.17275E+01 3.00000E-03
2.30000E+01 7.55319E-05 5.36515E+01 3.00000E-03
2.40000E+01 6.61665E-05 4.65769E+01 3.00000E-03
2.50000E+01 5.79627E-05 4.03795E+01 3.00000E-03
2.75000E+01 4.10890E-05 2.80690E+01 3.00000E-03
3.00000E+01 2.84907E-05 1.94674E+01 3.00000E-03
3.25000E+01 1.97569E-05 1.35030E+01 3.00000E-03
3.50000E+01 1.37016E-05 9.36679E+00 3.00000E-03
3.75000E+01 9.50299E-06 6.49817E+00 3.00000E-03
4.00000E+01 6.59153E-06 4.50851E+00 3.00000E-03
4.25000E+01 4.57245E-06 3.12837E+00 3.00000E-03
4.50000E+01 3.17211E-06 2.17095E+00 3.00000E-03
4.75000E+01 2.20081E-06 1.50673E+00 3.00000E-03
5.00000E+01 1.52705E-06 1.04586E+00 3.00000E-03
5.50000E+01 7.35369E-07 5.04165E-01 3.00000E-03
6.00000E+01 3.54240E-07 2.43267E-01 3.00000E-03
6.50000E+01 1.70699E-07 1.17570E-01 3.00000E-03
7.00000E+01 8.22820E-08 5.69911E-02 3.00000E-03
7.50000E+01 3.96749E-08 2.77862E-02 3.00000E-03
8.00000E+01 1.91366E-08 1.37022E-02 3.00000E-03
8.50000E+01 9.23310E-09 6.90808E-03 3.00000E-03
9.00000E+01 4.45620E-09 3.62957E-03 3.00000E-03
9.50000E+01 2.15137E-09 2.04704E-03 3.00000E-03
1.00000E+02 1.00000E-09 1.28292E-03 3.00000E-03
1.05000E+02 9.52381E-10 7.82920E-04 3.00000E-03
1.10000E+02 9.09091E-10 2.82920E-04 3.00000E-03
1.15000E+02 8.69565E-10 1.00000E-05 3.00000E-03
1.20000E+02 8.33333E-10 0.00000E+00 3.00000E-03
