# Atmospheric Model 51012106
# Col. #1          #2           #3            #4
# Alt [km]    rho [g/cm^3] thick [g/cm^2]    n-1
0.00000E+00 1.14729E-03 1.04969E+03 3.00000E-03
1.00000E+00 1.04369E-03 9.40222E+02 3.00000E-03
2.00000E+00 9.49438E-04 8.40641E+02 3.00000E-03
3.00000E+00 8.63699E-04 7.50051E+02 3.00000E-03
4.00000E+00 7.84614E-04 6.67653E+02 3.00000E-03
5.00000E+00 7.08560E-04 5.93059E+02 3.00000E-03
6.00000E+00 6.39891E-04 5.25695E+02 3.00000E-03
7.00000E+00 5.77888E-04 4.64859E+02 3.00000E-03
8.00000E+00 5.21903E-04 4.09917E+02 3.00000E-03
9.00000E+00 4.71352E-04 3.60297E+02 3.00000E-03
1.00000E+01 4.22038E-04 3.15536E+02 3.00000E-03
1.10000E+01 3.69701E-04 2.76006E+02 3.00000E-03
1.20000E+01 3.23856E-04 2.41379E+02 3.00000E-03
1.30000E+01 2.83697E-04 2.11046E+02 3.00000E-03
1.40000E+01 2.48519E-04 1.84474E+02 3.00000E-03
1.50000E+01 2.17704E-04 1.61197E+02 3.00000E-03
1.60000E+01 1.90710E-04 1.40806E+02 3.00000E-03
1.70000E+01 1.67065E-04 1.22943E+02 3.00000E-03
1.80000E+01 1.46351E-04 1.07295E+02 3.00000E-03
1.90000E+01 1.28207E-04 9.35872E+01 3.00000E-03
2.00000E+01 1.12312E-04 8.15788E+01 3.00000E-03
2.10000E+01 9.83887E-05 7.10591E+01 3.00000E-03
2.20000E+01 8.61917E-05 6.18435E+01 3.00000E-03
2.30000E+01 7.55070E-05 5.37704E+01 3.00000E-03
2.40000E+01 6.61471E-05 4.66980E+01 3.00000E-03
2.50000E+01 5.79477E-05 4.05023E+01 3.00000E-03
2.75000E+01 4.11339E-05 2.81901E+01 3.00000E-03
3.00000E+01 2.85528E-05 1.95749E+01 3.00000E-03
3.25000E+01 1.98223E-05 1.35943E+01 3.00000E-03
3.50000E+01 1.37630E-05 9.44210E+00 3.00000E-03
3.75000E+01 9.55709E-06 6.55901E+00 3.00000E-03
4.00000E+01 6.63732E-06 4.55685E+00 3.00000E-03
4.25000E+01 4.61013E-06 3.16630E+00 3.00000E-03
4.50000E+01 3.20248E-06 2.20039E+00 3.00000E-03
4.75000E+01 2.22491E-06 1.52937E+00 3.00000E-03
5.00000E+01 1.54594E-06 1.06316E+00 3.00000E-03
5.50000E+01 7.46629E-07 5.14070E-01 3.00000E-03
6.00000E+01 3.60764E-07 2.48824E-01 3.00000E-03
6.50000E+01 1.74399E-07 1.20634E-01 3.00000E-03
7.00000E+01 8.43457E-08 5.86521E-02 3.00000E-03
7.50000E+01 4.08111E-08 2.86694E-02 3.00000E-03
8.00000E+01 1.97554E-08 1.41593E-02 3.00000E-03
8.50000E+01 9.56718E-09 7.13408E-03 3.00000E-03
9.00000E+01 4.63519E-09 3.73124E-03 3.00000E-03
9.50000E+01 2.24664E-09 2.08230E-03 3.00000E-03
1.00000E+02 1.00000E-09 1.28292E-03 3.00000E-03
1.05000E+02 9.52381E-10 7.82920E-04 3.00000E-03
1.10000E+02 9.09091E-10 2.82920E-04 3.00000E-03
1.15000E+02 8.69565E-10 1.00000E-05 3.00000E-03
1.20000E+02 8.33333E-10 0.00000E+00 3.00000E-03
