# Atmospheric Model 51012108
# Col. #1          #2           #3            #4
# Alt [km]    rho [g/cm^3] thick [g/cm^2]    n-1
0.00000E+00 1.14276E-03 1.04676E+03 3.00000E-03
1.00000E+00 1.03927E-03 9.37745E+02 3.00000E-03
2.00000E+00 9.45150E-04 8.38598E+02 3.00000E-03
3.00000E+00 8.59554E-04 7.48431E+02 3.00000E-03
4.00000E+00 7.80890E-04 6.66437E+02 3.00000E-03
5.00000E+00 7.06255E-04 5.92142E+02 3.00000E-03
6.00000E+00 6.38770E-04 5.24948E+02 3.00000E-03
7.00000E+00 5.77748E-04 4.64173E+02 3.00000E-03
8.00000E+00 5.22569E-04 4.09204E+02 3.00000E-03
9.00000E+00 4.72672E-04 3.59483E+02 3.00000E-03
1.00000E+01 4.23496E-04 3.14569E+02 3.00000E-03
1.10000E+01 3.70576E-04 2.74924E+02 3.00000E-03
1.20000E+01 3.24270E-04 2.40234E+02 3.00000E-03
1.30000E+01 2.83752E-04 2.09878E+02 3.00000E-03
1.40000E+01 2.48299E-04 1.83315E+02 3.00000E-03
1.50000E+01 2.17276E-04 1.60070E+02 3.00000E-03
1.60000E+01 1.90131E-04 1.39730E+02 3.00000E-03
1.70000E+01 1.66378E-04 1.21931E+02 3.00000E-03
1.80000E+01 1.45593E-04 1.06356E+02 3.00000E-03
1.90000E+01 1.27406E-04 9.27259E+01 3.00000E-03
2.00000E+01 1.11491E-04 8.07987E+01 3.00000E-03
2.10000E+01 9.75652E-05 7.03614E+01 3.00000E-03
2.20000E+01 8.53790E-05 6.12277E+01 3.00000E-03
2.30000E+01 7.47154E-05 5.32348E+01 3.00000E-03
2.40000E+01 6.53841E-05 4.62402E+01 3.00000E-03
2.50000E+01 5.72185E-05 4.01192E+01 3.00000E-03
2.75000E+01 4.05964E-05 2.79723E+01 3.00000E-03
3.00000E+01 2.82386E-05 1.94612E+01 3.00000E-03
3.25000E+01 1.96440E-05 1.35407E+01 3.00000E-03
3.50000E+01 1.36661E-05 9.42207E+00 3.00000E-03
3.75000E+01 9.50806E-06 6.55667E+00 3.00000E-03
4.00000E+01 6.61557E-06 4.56304E+00 3.00000E-03
4.25000E+01 4.60333E-06 3.17585E+00 3.00000E-03
4.50000E+01 3.20337E-06 2.21057E+00 3.00000E-03
4.75000E+01 2.22931E-06 1.53883E+00 3.00000E-03
5.00000E+01 1.55154E-06 1.07133E+00 3.00000E-03
5.50000E+01 7.51682E-07 5.19482E-01 3.00000E-03
6.00000E+01 3.64267E-07 2.52093E-01 3.00000E-03
6.50000E+01 1.76570E-07 1.22502E-01 3.00000E-03
7.00000E+01 8.56104E-08 5.96777E-02 3.00000E-03
7.50000E+01 4.15189E-08 2.92140E-02 3.00000E-03
8.00000E+01 2.01407E-08 1.44383E-02 3.00000E-03
8.50000E+01 9.77260E-09 7.26980E-03 3.00000E-03
9.00000E+01 4.74299E-09 3.79117E-03 3.00000E-03
9.50000E+01 2.30250E-09 2.10269E-03 3.00000E-03
1.00000E+02 1.00000E-09 1.28292E-03 3.00000E-03
1.05000E+02 9.52381E-10 7.82920E-04 3.00000E-03
1.10000E+02 9.09091E-10 2.82920E-04 3.00000E-03
1.15000E+02 8.69565E-10 1.00000E-05 3.00000E-03
1.20000E+02 8.33333E-10 0.00000E+00 3.00000E-03
