# Atmospheric Model 58062107
# Col. #1          #2           #3            #4
# Alt [km]    rho [g/cm^3] thick [g/cm^2]    n-1
0.00000E+00 1.16283E-03 1.05866E+03 3.00000E-03
1.00000E+00 1.05796E-03 9.47707E+02 3.00000E-03
2.00000E+00 9.62559E-04 8.46756E+02 3.00000E-03
3.00000E+00 8.75762E-04 7.54908E+02 3.00000E-03
4.00000E+00 7.95191E-04 6.71357E+02 3.00000E-03
5.00000E+00 7.15559E-04 5.95890E+02 3.00000E-03
6.00000E+00 6.43902E-04 5.27980E+02 3.00000E-03
7.00000E+00 5.79421E-04 4.66870E+02 3.00000E-03
8.00000E+00 5.21397E-04 4.11880E+02 3.00000E-03
9.00000E+00 4.69184E-04 3.62397E+02 3.00000E-03
1.00000E+01 4.19611E-04 3.17902E+02 3.00000E-03
1.10000E+01 3.68324E-04 2.78561E+02 3.00000E-03
1.20000E+01 3.23305E-04 2.44028E+02 3.00000E-03
1.30000E+01 2.83789E-04 2.13716E+02 3.00000E-03
1.40000E+01 2.49103E-04 1.87109E+02 3.00000E-03
1.50000E+01 2.18657E-04 1.63755E+02 3.00000E-03
1.60000E+01 1.91932E-04 1.43254E+02 3.00000E-03
1.70000E+01 1.68473E-04 1.25259E+02 3.00000E-03
1.80000E+01 1.47882E-04 1.09464E+02 3.00000E-03
1.90000E+01 1.29807E-04 9.55993E+01 3.00000E-03
2.00000E+01 1.13942E-04 8.34291E+01 3.00000E-03
2.10000E+01 1.00015E-04 7.27463E+01 3.00000E-03
2.20000E+01 8.77912E-05 6.33693E+01 3.00000E-03
2.30000E+01 7.70612E-05 5.51383E+01 3.00000E-03
2.40000E+01 6.76426E-05 4.79133E+01 3.00000E-03
2.50000E+01 5.93752E-05 4.15714E+01 3.00000E-03
2.75000E+01 4.23139E-05 2.89265E+01 3.00000E-03
3.00000E+01 2.93459E-05 2.00678E+01 3.00000E-03
3.25000E+01 2.03546E-05 1.39237E+01 3.00000E-03
3.50000E+01 1.41197E-05 9.66183E+00 3.00000E-03
3.75000E+01 9.79581E-06 6.70527E+00 3.00000E-03
4.00000E+01 6.79679E-06 4.65400E+00 3.00000E-03
4.25000E+01 4.71646E-06 3.23066E+00 3.00000E-03
4.50000E+01 3.27323E-06 2.24292E+00 3.00000E-03
4.75000E+01 2.27188E-06 1.55739E+00 3.00000E-03
5.00000E+01 1.57704E-06 1.08155E+00 3.00000E-03
5.50000E+01 7.60147E-07 5.21897E-01 3.00000E-03
6.00000E+01 3.66555E-07 2.52088E-01 3.00000E-03
6.50000E+01 1.76834E-07 1.21957E-01 3.00000E-03
7.00000E+01 8.53439E-08 5.91675E-02 3.00000E-03
7.50000E+01 4.12057E-08 2.88585E-02 3.00000E-03
8.00000E+01 1.99029E-08 1.42222E-02 3.00000E-03
8.50000E+01 9.61718E-09 7.15136E-03 3.00000E-03
9.00000E+01 4.64887E-09 3.73413E-03 3.00000E-03
9.50000E+01 2.24808E-09 2.08199E-03 3.00000E-03
1.00000E+02 1.00000E-09 1.28292E-03 3.00000E-03
1.05000E+02 9.52381E-10 7.82920E-04 3.00000E-03
1.10000E+02 9.09091E-10 2.82920E-04 3.00000E-03
1.15000E+02 8.69565E-10 1.00000E-05 3.00000E-03
1.20000E+02 8.33333E-10 0.00000E+00 3.00000E-03
