# Atmospheric Model 5404202103
# Col. #1          #2           #3            #4
# Alt [km]    rho [g/cm^3] thick [g/cm^2]    n-1
0.00000E+00 1.16179E-03 1.04445E+03 3.00000E-03
1.00000E+00 1.05532E-03 9.33682E+02 3.00000E-03
2.00000E+00 9.58608E-04 8.33063E+02 3.00000E-03
3.00000E+00 8.70758E-04 7.41665E+02 3.00000E-03
4.00000E+00 7.89985E-04 6.58656E+02 3.00000E-03
5.00000E+00 7.14140E-04 5.83514E+02 3.00000E-03
6.00000E+00 6.45580E-04 5.15585E+02 3.00000E-03
7.00000E+00 5.83605E-04 4.54178E+02 3.00000E-03
8.00000E+00 5.27582E-04 3.98666E+02 3.00000E-03
9.00000E+00 4.76938E-04 3.48483E+02 3.00000E-03
1.00000E+01 4.24093E-04 3.03277E+02 3.00000E-03
1.10000E+01 3.68915E-04 2.63690E+02 3.00000E-03
1.20000E+01 3.20918E-04 2.29254E+02 3.00000E-03
1.30000E+01 2.79168E-04 1.99299E+02 3.00000E-03
1.40000E+01 2.42851E-04 1.73240E+02 3.00000E-03
1.50000E+01 2.11260E-04 1.50571E+02 3.00000E-03
1.60000E+01 1.83780E-04 1.30851E+02 3.00000E-03
1.70000E+01 1.59875E-04 1.13696E+02 3.00000E-03
1.80000E+01 1.39081E-04 9.87723E+01 3.00000E-03
1.90000E+01 1.20992E-04 8.57897E+01 3.00000E-03
2.00000E+01 1.05256E-04 7.44955E+01 3.00000E-03
2.10000E+01 9.15679E-05 6.46702E+01 3.00000E-03
2.20000E+01 7.96602E-05 5.61226E+01 3.00000E-03
2.30000E+01 6.93015E-05 4.86866E+01 3.00000E-03
2.40000E+01 6.02902E-05 4.22174E+01 3.00000E-03
2.50000E+01 5.24510E-05 3.65895E+01 3.00000E-03
2.75000E+01 3.68648E-05 2.55235E+01 3.00000E-03
3.00000E+01 2.56888E-05 1.77882E+01 3.00000E-03
3.25000E+01 1.79017E-05 1.23979E+01 3.00000E-03
3.50000E+01 1.24758E-05 8.64146E+00 3.00000E-03
3.75000E+01 8.69485E-06 6.02352E+00 3.00000E-03
4.00000E+01 6.06006E-06 4.19894E+00 3.00000E-03
4.25000E+01 4.22389E-06 2.92723E+00 3.00000E-03
4.50000E+01 2.94421E-06 2.04082E+00 3.00000E-03
4.75000E+01 2.05232E-06 1.42295E+00 3.00000E-03
5.00000E+01 1.43068E-06 9.92236E-01 3.00000E-03
5.50000E+01 6.95343E-07 4.82655E-01 3.00000E-03
6.00000E+01 3.38016E-07 2.34967E-01 3.00000E-03
6.50000E+01 1.64345E-07 1.14552E-01 3.00000E-03
7.00000E+01 7.99205E-08 5.60005E-02 3.00000E-03
7.50000E+01 3.88722E-08 2.75250E-02 3.00000E-03
8.00000E+01 1.89104E-08 1.36737E-02 3.00000E-03
8.50000E+01 9.20115E-09 6.93488E-03 3.00000E-03
9.00000E+01 4.47777E-09 3.65573E-03 3.00000E-03
9.50000E+01 2.17952E-09 2.05979E-03 3.00000E-03
1.00000E+02 1.00000E-09 1.28292E-03 3.00000E-03
1.05000E+02 9.52381E-10 7.82920E-04 3.00000E-03
1.10000E+02 9.09091E-10 2.82920E-04 3.00000E-03
1.15000E+02 8.69565E-10 1.00000E-05 3.00000E-03
1.20000E+02 8.33333E-10 0.00000E+00 3.00000E-03
