# Atmospheric Model 5404202108
# Col. #1          #2           #3            #4
# Alt [km]    rho [g/cm^3] thick [g/cm^2]    n-1
0.00000E+00 1.21154E-03 1.05227E+03 3.00000E-03
1.00000E+00 1.09791E-03 9.36891E+02 3.00000E-03
2.00000E+00 9.94943E-04 8.32332E+02 3.00000E-03
3.00000E+00 9.01631E-04 7.37580E+02 3.00000E-03
4.00000E+00 8.15043E-04 6.51745E+02 3.00000E-03
5.00000E+00 7.32352E-04 5.74449E+02 3.00000E-03
6.00000E+00 6.58057E-04 5.04995E+02 3.00000E-03
7.00000E+00 5.91304E-04 4.42586E+02 3.00000E-03
8.00000E+00 5.31328E-04 3.86508E+02 3.00000E-03
9.00000E+00 4.77439E-04 3.36118E+02 3.00000E-03
1.00000E+01 4.19459E-04 2.91143E+02 3.00000E-03
1.10000E+01 3.63136E-04 2.52080E+02 3.00000E-03
1.20000E+01 3.14378E-04 2.18263E+02 3.00000E-03
1.30000E+01 2.72170E-04 1.88987E+02 3.00000E-03
1.40000E+01 2.35631E-04 1.63641E+02 3.00000E-03
1.50000E+01 2.03999E-04 1.41697E+02 3.00000E-03
1.60000E+01 1.76616E-04 1.22699E+02 3.00000E-03
1.70000E+01 1.52909E-04 1.06251E+02 3.00000E-03
1.80000E+01 1.32386E-04 9.20113E+01 3.00000E-03
1.90000E+01 1.14619E-04 7.96823E+01 3.00000E-03
2.00000E+01 9.92371E-05 6.90080E+01 3.00000E-03
2.10000E+01 8.59203E-05 5.97661E+01 3.00000E-03
2.20000E+01 7.43913E-05 5.17644E+01 3.00000E-03
2.30000E+01 6.44099E-05 4.48363E+01 3.00000E-03
2.40000E+01 5.57683E-05 3.88378E+01 3.00000E-03
2.50000E+01 4.82865E-05 3.36440E+01 3.00000E-03
2.75000E+01 3.37057E-05 2.35058E+01 3.00000E-03
3.00000E+01 2.35497E-05 1.64246E+01 3.00000E-03
3.25000E+01 1.64543E-05 1.14770E+01 3.00000E-03
3.50000E+01 1.14970E-05 8.02006E+00 3.00000E-03
3.75000E+01 8.03348E-06 5.60456E+00 3.00000E-03
4.00000E+01 5.61350E-06 3.91672E+00 3.00000E-03
4.25000E+01 3.92262E-06 2.73731E+00 3.00000E-03
4.50000E+01 2.74113E-06 1.91314E+00 3.00000E-03
4.75000E+01 1.91555E-06 1.33721E+00 3.00000E-03
5.00000E+01 1.33866E-06 9.34732E-01 3.00000E-03
5.50000E+01 6.53824E-07 4.56890E-01 3.00000E-03
6.00000E+01 3.19371E-07 2.23493E-01 3.00000E-03
6.50000E+01 1.56019E-07 1.09481E-01 3.00000E-03
7.00000E+01 7.62262E-08 5.37818E-02 3.00000E-03
7.50000E+01 3.72457E-08 2.65674E-02 3.00000E-03
8.00000E+01 1.82009E-08 1.32693E-02 3.00000E-03
8.50000E+01 8.89520E-09 6.77058E-03 3.00000E-03
9.00000E+01 4.34773E-09 3.59437E-03 3.00000E-03
9.50000E+01 2.12526E-09 2.04186E-03 3.00000E-03
1.00000E+02 1.00000E-09 1.28292E-03 3.00000E-03
1.05000E+02 9.52381E-10 7.82920E-04 3.00000E-03
1.10000E+02 9.09091E-10 2.82920E-04 3.00000E-03
1.15000E+02 8.69565E-10 1.00000E-05 3.00000E-03
1.20000E+02 8.33333E-10 0.00000E+00 3.00000E-03
