# Atmospheric Model 5404202105
# Col. #1          #2           #3            #4
# Alt [km]    rho [g/cm^3] thick [g/cm^2]    n-1
0.00000E+00 1.19712E-03 1.05204E+03 3.00000E-03
1.00000E+00 1.08565E-03 9.37996E+02 3.00000E-03
2.00000E+00 9.84564E-04 8.34568E+02 3.00000E-03
3.00000E+00 8.92887E-04 7.40770E+02 3.00000E-03
4.00000E+00 8.08119E-04 6.55728E+02 3.00000E-03
5.00000E+00 7.27459E-04 5.79020E+02 3.00000E-03
6.00000E+00 6.54854E-04 5.09968E+02 3.00000E-03
7.00000E+00 5.89501E-04 4.47808E+02 3.00000E-03
8.00000E+00 5.30675E-04 3.91851E+02 3.00000E-03
9.00000E+00 4.77722E-04 3.41477E+02 3.00000E-03
1.00000E+01 4.21382E-04 2.96381E+02 3.00000E-03
1.10000E+01 3.65582E-04 2.57099E+02 3.00000E-03
1.20000E+01 3.17175E-04 2.23019E+02 3.00000E-03
1.30000E+01 2.75180E-04 1.93451E+02 3.00000E-03
1.40000E+01 2.38749E-04 1.67797E+02 3.00000E-03
1.50000E+01 2.07143E-04 1.45540E+02 3.00000E-03
1.60000E+01 1.79724E-04 1.26229E+02 3.00000E-03
1.70000E+01 1.55936E-04 1.09474E+02 3.00000E-03
1.80000E+01 1.35298E-04 9.49371E+01 3.00000E-03
1.90000E+01 1.17393E-04 8.23237E+01 3.00000E-03
2.00000E+01 1.01859E-04 7.13795E+01 3.00000E-03
2.10000E+01 8.83809E-05 6.18835E+01 3.00000E-03
2.20000E+01 7.66875E-05 5.36439E+01 3.00000E-03
2.30000E+01 6.65421E-05 4.64944E+01 3.00000E-03
2.40000E+01 5.77395E-05 4.02908E+01 3.00000E-03
2.50000E+01 5.01020E-05 3.49077E+01 3.00000E-03
2.75000E+01 3.50729E-05 2.43659E+01 3.00000E-03
3.00000E+01 2.44708E-05 1.70023E+01 3.00000E-03
3.25000E+01 1.70742E-05 1.18645E+01 3.00000E-03
3.50000E+01 1.19137E-05 8.27965E+00 3.00000E-03
3.75000E+01 8.31329E-06 5.77821E+00 3.00000E-03
4.00000E+01 5.80114E-06 4.03270E+00 3.00000E-03
4.25000E+01 4.04827E-06 2.81464E+00 3.00000E-03
4.50000E+01 2.82515E-06 1.96461E+00 3.00000E-03
4.75000E+01 1.97165E-06 1.37140E+00 3.00000E-03
5.00000E+01 1.37605E-06 9.57386E-01 3.00000E-03
5.50000E+01 6.70334E-07 4.66764E-01 3.00000E-03
6.00000E+01 3.26596E-07 2.27745E-01 3.00000E-03
6.50000E+01 1.59145E-07 1.11284E-01 3.00000E-03
7.00000E+01 7.75602E-08 5.45310E-02 3.00000E-03
7.50000E+01 3.78048E-08 2.68703E-02 3.00000E-03
8.00000E+01 1.84296E-08 1.33870E-02 3.00000E-03
8.50000E+01 8.98563E-09 6.81352E-03 3.00000E-03
9.00000E+01 4.38169E-09 3.60832E-03 3.00000E-03
9.50000E+01 2.13696E-09 2.04527E-03 3.00000E-03
1.00000E+02 1.00000E-09 1.28292E-03 3.00000E-03
1.05000E+02 9.52381E-10 7.82920E-04 3.00000E-03
1.10000E+02 9.09091E-10 2.82920E-04 3.00000E-03
1.15000E+02 8.69565E-10 1.00000E-05 3.00000E-03
1.20000E+02 8.33333E-10 0.00000E+00 3.00000E-03
