# Atmospheric Model 5404202106
# Col. #1          #2           #3            #4
# Alt [km]    rho [g/cm^3] thick [g/cm^2]    n-1
0.00000E+00 1.21316E-03 1.05542E+03 3.00000E-03
1.00000E+00 1.09899E-03 9.39903E+02 3.00000E-03
2.00000E+00 9.95567E-04 8.35260E+02 3.00000E-03
3.00000E+00 9.01881E-04 7.40465E+02 3.00000E-03
4.00000E+00 8.14994E-04 6.54619E+02 3.00000E-03
5.00000E+00 7.31931E-04 5.77348E+02 3.00000E-03
6.00000E+00 6.57343E-04 5.07951E+02 3.00000E-03
7.00000E+00 5.90365E-04 4.45626E+02 3.00000E-03
8.00000E+00 5.30219E-04 3.89650E+02 3.00000E-03
9.00000E+00 4.76208E-04 3.39377E+02 3.00000E-03
1.00000E+01 4.18994E-04 2.94500E+02 3.00000E-03
1.10000E+01 3.63449E-04 2.55444E+02 3.00000E-03
1.20000E+01 3.15274E-04 2.21565E+02 3.00000E-03
1.30000E+01 2.73491E-04 1.92176E+02 3.00000E-03
1.40000E+01 2.37251E-04 1.66682E+02 3.00000E-03
1.50000E+01 2.05818E-04 1.44566E+02 3.00000E-03
1.60000E+01 1.78553E-04 1.25380E+02 3.00000E-03
1.70000E+01 1.54903E-04 1.08735E+02 3.00000E-03
1.80000E+01 1.34389E-04 9.42948E+01 3.00000E-03
1.90000E+01 1.16594E-04 8.17667E+01 3.00000E-03
2.00000E+01 1.01158E-04 7.08975E+01 3.00000E-03
2.10000E+01 8.77667E-05 6.14671E+01 3.00000E-03
2.20000E+01 7.61503E-05 5.32850E+01 3.00000E-03
2.30000E+01 6.60727E-05 4.61858E+01 3.00000E-03
2.40000E+01 5.73301E-05 4.00260E+01 3.00000E-03
2.50000E+01 4.97454E-05 3.46812E+01 3.00000E-03
2.75000E+01 3.48219E-05 2.42149E+01 3.00000E-03
3.00000E+01 2.43038E-05 1.69028E+01 3.00000E-03
3.25000E+01 1.69635E-05 1.17993E+01 3.00000E-03
3.50000E+01 1.18406E-05 8.23708E+00 3.00000E-03
3.75000E+01 8.26514E-06 5.75059E+00 3.00000E-03
4.00000E+01 5.76959E-06 4.01491E+00 3.00000E-03
4.25000E+01 4.02771E-06 2.80326E+00 3.00000E-03
4.50000E+01 2.81183E-06 1.95741E+00 3.00000E-03
4.75000E+01 1.96308E-06 1.36689E+00 3.00000E-03
5.00000E+01 1.37058E-06 9.54606E-01 3.00000E-03
5.50000E+01 6.68177E-07 4.65771E-01 3.00000E-03
6.00000E+01 3.25798E-07 2.27440E-01 3.00000E-03
6.50000E+01 1.58882E-07 1.11224E-01 3.00000E-03
7.00000E+01 7.74948E-08 5.45442E-02 3.00000E-03
7.50000E+01 3.78040E-08 2.68969E-02 3.00000E-03
8.00000E+01 1.84447E-08 1.34088E-02 3.00000E-03
8.50000E+01 9.00062E-09 6.82754E-03 3.00000E-03
9.00000E+01 4.39279E-09 3.61579E-03 3.00000E-03
9.50000E+01 2.14425E-09 2.04817E-03 3.00000E-03
1.00000E+02 1.00000E-09 1.28292E-03 3.00000E-03
1.05000E+02 9.52381E-10 7.82920E-04 3.00000E-03
1.10000E+02 9.09091E-10 2.82920E-04 3.00000E-03
1.15000E+02 8.69565E-10 1.00000E-05 3.00000E-03
1.20000E+02 8.33333E-10 0.00000E+00 3.00000E-03
