# Atmospheric Model 58022103
# Col. #1          #2           #3            #4
# Alt [km]    rho [g/cm^3] thick [g/cm^2]    n-1
0.00000E+00 1.17252E-03 1.06012E+03 3.00000E-03
1.00000E+00 1.06526E-03 9.48314E+02 3.00000E-03
2.00000E+00 9.67834E-04 8.46737E+02 3.00000E-03
3.00000E+00 8.79328E-04 7.54450E+02 3.00000E-03
4.00000E+00 7.96983E-04 6.70623E+02 3.00000E-03
5.00000E+00 7.16079E-04 5.95042E+02 3.00000E-03
6.00000E+00 6.43389E-04 5.27133E+02 3.00000E-03
7.00000E+00 5.78079E-04 4.66118E+02 3.00000E-03
8.00000E+00 5.19401E-04 4.11296E+02 3.00000E-03
9.00000E+00 4.66680E-04 3.62039E+02 3.00000E-03
1.00000E+01 4.16775E-04 3.17817E+02 3.00000E-03
1.10000E+01 3.66239E-04 2.78721E+02 3.00000E-03
1.20000E+01 3.21831E-04 2.44365E+02 3.00000E-03
1.30000E+01 2.82808E-04 2.14175E+02 3.00000E-03
1.40000E+01 2.48517E-04 1.87646E+02 3.00000E-03
1.50000E+01 2.18384E-04 1.64333E+02 3.00000E-03
1.60000E+01 1.91904E-04 1.43847E+02 3.00000E-03
1.70000E+01 1.68636E-04 1.25845E+02 3.00000E-03
1.80000E+01 1.48189E-04 1.10026E+02 3.00000E-03
1.90000E+01 1.30221E-04 9.61251E+01 3.00000E-03
2.00000E+01 1.14432E-04 8.39095E+01 3.00000E-03
2.10000E+01 1.00557E-04 7.31750E+01 3.00000E-03
2.20000E+01 8.83647E-05 6.37420E+01 3.00000E-03
2.30000E+01 7.76507E-05 5.54528E+01 3.00000E-03
2.40000E+01 6.82358E-05 4.81686E+01 3.00000E-03
2.50000E+01 5.99625E-05 4.17676E+01 3.00000E-03
2.75000E+01 4.26350E-05 2.89982E+01 3.00000E-03
3.00000E+01 2.95124E-05 2.00802E+01 3.00000E-03
3.25000E+01 2.04316E-05 1.39067E+01 3.00000E-03
3.50000E+01 1.41467E-05 9.63248E+00 3.00000E-03
3.75000E+01 9.79639E-06 6.67285E+00 3.00000E-03
4.00000E+01 6.78474E-06 4.62323E+00 3.00000E-03
4.25000E+01 4.69955E-06 3.20362E+00 3.00000E-03
4.50000E+01 3.25563E-06 2.22025E+00 3.00000E-03
4.75000E+01 2.25564E-06 1.53898E+00 3.00000E-03
5.00000E+01 1.56300E-06 1.06694E+00 3.00000E-03
5.50000E+01 7.50756E-07 5.13118E-01 3.00000E-03
6.00000E+01 3.60790E-07 2.47044E-01 3.00000E-03
6.50000E+01 1.73468E-07 1.19150E-01 3.00000E-03
7.00000E+01 8.34438E-08 5.76449E-02 3.00000E-03
7.50000E+01 4.01580E-08 2.80530E-02 3.00000E-03
8.00000E+01 1.93353E-08 1.38088E-02 3.00000E-03
8.50000E+01 9.31382E-09 6.94909E-03 3.00000E-03
9.00000E+01 4.48847E-09 3.64412E-03 3.00000E-03
9.50000E+01 2.16401E-09 2.05110E-03 3.00000E-03
1.00000E+02 1.00000E-09 1.28292E-03 3.00000E-03
1.05000E+02 9.52381E-10 7.82920E-04 3.00000E-03
1.10000E+02 9.09091E-10 2.82920E-04 3.00000E-03
1.15000E+02 8.69565E-10 1.00000E-05 3.00000E-03
1.20000E+02 8.33333E-10 0.00000E+00 3.00000E-03
