# Atmospheric Model 5802202105
# Col. #1          #2           #3            #4
# Alt [km]    rho [g/cm^3] thick [g/cm^2]    n-1
0.00000E+00 1.16767E-03 1.06072E+03 3.00000E-03
1.00000E+00 1.06127E-03 9.49358E+02 3.00000E-03
2.00000E+00 9.64587E-04 8.48142E+02 3.00000E-03
3.00000E+00 8.76720E-04 7.56147E+02 3.00000E-03
4.00000E+00 7.95135E-04 6.72549E+02 3.00000E-03
5.00000E+00 7.14968E-04 5.97115E+02 3.00000E-03
6.00000E+00 6.42885E-04 5.29286E+02 3.00000E-03
7.00000E+00 5.78071E-04 4.68295E+02 3.00000E-03
8.00000E+00 5.19792E-04 4.13454E+02 3.00000E-03
9.00000E+00 4.67390E-04 3.64141E+02 3.00000E-03
1.00000E+01 4.17984E-04 3.19827E+02 3.00000E-03
1.10000E+01 3.67388E-04 2.80613E+02 3.00000E-03
1.20000E+01 3.22917E-04 2.46146E+02 3.00000E-03
1.30000E+01 2.83830E-04 2.15850E+02 3.00000E-03
1.40000E+01 2.49474E-04 1.89222E+02 3.00000E-03
1.50000E+01 2.19276E-04 1.65817E+02 3.00000E-03
1.60000E+01 1.92734E-04 1.45245E+02 3.00000E-03
1.70000E+01 1.69405E-04 1.27163E+02 3.00000E-03
1.80000E+01 1.48900E-04 1.11270E+02 3.00000E-03
1.90000E+01 1.30877E-04 9.73006E+01 3.00000E-03
2.00000E+01 1.15035E-04 8.50220E+01 3.00000E-03
2.10000E+01 1.01111E-04 7.42296E+01 3.00000E-03
2.20000E+01 8.88729E-05 6.47436E+01 3.00000E-03
2.30000E+01 7.81158E-05 5.64057E+01 3.00000E-03
2.40000E+01 6.86608E-05 4.90770E+01 3.00000E-03
2.50000E+01 6.03502E-05 4.26354E+01 3.00000E-03
2.75000E+01 4.30822E-05 2.97694E+01 3.00000E-03
3.00000E+01 2.99972E-05 2.07330E+01 3.00000E-03
3.25000E+01 2.08883E-05 1.44409E+01 3.00000E-03
3.50000E+01 1.45467E-05 1.00593E+01 3.00000E-03
3.75000E+01 1.01313E-05 7.00775E+00 3.00000E-03
4.00000E+01 7.05675E-06 4.88237E+00 3.00000E-03
4.25000E+01 4.91565E-06 3.40192E+00 3.00000E-03
4.50000E+01 3.42449E-06 2.37062E+00 3.00000E-03
4.75000E+01 2.38587E-06 1.65213E+00 3.00000E-03
5.00000E+01 1.66239E-06 1.15154E+00 3.00000E-03
5.50000E+01 8.07265E-07 5.59655E-01 3.00000E-03
6.00000E+01 3.92137E-07 2.72194E-01 3.00000E-03
6.50000E+01 1.90544E-07 1.32538E-01 3.00000E-03
7.00000E+01 9.26162E-08 6.46678E-02 3.00000E-03
7.50000E+01 4.50305E-08 3.16745E-02 3.00000E-03
8.00000E+01 2.19005E-08 1.56309E-02 3.00000E-03
8.50000E+01 1.06542E-08 7.82713E-03 3.00000E-03
9.00000E+01 5.18453E-09 4.03028E-03 3.00000E-03
9.50000E+01 2.52356E-09 2.18245E-03 3.00000E-03
1.00000E+02 1.00000E-09 1.28292E-03 3.00000E-03
1.05000E+02 9.52381E-10 7.82920E-04 3.00000E-03
1.10000E+02 9.09091E-10 2.82920E-04 3.00000E-03
1.15000E+02 8.69565E-10 1.00000E-05 3.00000E-03
1.20000E+02 8.33333E-10 0.00000E+00 3.00000E-03
