# Atmospheric Model 5802202107
# Col. #1          #2           #3            #4
# Alt [km]    rho [g/cm^3] thick [g/cm^2]    n-1
0.00000E+00 1.17281E-03 1.06092E+03 3.00000E-03
1.00000E+00 1.06507E-03 9.49110E+02 3.00000E-03
2.00000E+00 9.67235E-04 8.47574E+02 3.00000E-03
3.00000E+00 8.78399E-04 7.55363E+02 3.00000E-03
4.00000E+00 7.96212E-04 6.71637E+02 3.00000E-03
5.00000E+00 7.16137E-04 5.96090E+02 3.00000E-03
6.00000E+00 6.44117E-04 5.28141E+02 3.00000E-03
7.00000E+00 5.79341E-04 4.67025E+02 3.00000E-03
8.00000E+00 5.21081E-04 4.12055E+02 3.00000E-03
9.00000E+00 4.68680E-04 3.62614E+02 3.00000E-03
1.00000E+01 4.19021E-04 3.18176E+02 3.00000E-03
1.10000E+01 3.67910E-04 2.78885E+02 3.00000E-03
1.20000E+01 3.23033E-04 2.44386E+02 3.00000E-03
1.30000E+01 2.83630E-04 2.14096E+02 3.00000E-03
1.40000E+01 2.49034E-04 1.87500E+02 3.00000E-03
1.50000E+01 2.18658E-04 1.64148E+02 3.00000E-03
1.60000E+01 1.91987E-04 1.43645E+02 3.00000E-03
1.70000E+01 1.68569E-04 1.25642E+02 3.00000E-03
1.80000E+01 1.48008E-04 1.09836E+02 3.00000E-03
1.90000E+01 1.29955E-04 9.59572E+01 3.00000E-03
2.00000E+01 1.14104E-04 8.37714E+01 3.00000E-03
2.10000E+01 1.00186E-04 7.30720E+01 3.00000E-03
2.20000E+01 8.79661E-05 6.36777E+01 3.00000E-03
2.30000E+01 7.72366E-05 5.54292E+01 3.00000E-03
2.40000E+01 6.78159E-05 4.81867E+01 3.00000E-03
2.50000E+01 5.95443E-05 4.18277E+01 3.00000E-03
2.75000E+01 4.24779E-05 2.91418E+01 3.00000E-03
3.00000E+01 2.94998E-05 2.02430E+01 3.00000E-03
3.25000E+01 2.04886E-05 1.40628E+01 3.00000E-03
3.50000E+01 1.42312E-05 9.77025E+00 3.00000E-03
3.75000E+01 9.88566E-06 6.78858E+00 3.00000E-03
4.00000E+01 6.86764E-06 4.71728E+00 3.00000E-03
4.25000E+01 4.77139E-06 3.27829E+00 3.00000E-03
4.50000E+01 3.31526E-06 2.27848E+00 3.00000E-03
4.75000E+01 2.30370E-06 1.58377E+00 3.00000E-03
5.00000E+01 1.60092E-06 1.10101E+00 3.00000E-03
5.50000E+01 7.73326E-07 5.32338E-01 3.00000E-03
6.00000E+01 3.73675E-07 2.57600E-01 3.00000E-03
6.50000E+01 1.80618E-07 1.24828E-01 3.00000E-03
7.00000E+01 8.73300E-08 6.06425E-02 3.00000E-03
7.50000E+01 4.22376E-08 2.96043E-02 3.00000E-03
8.00000E+01 2.04346E-08 1.45905E-02 3.00000E-03
8.50000E+01 9.88923E-09 7.32583E-03 3.00000E-03
9.00000E+01 4.78725E-09 3.80969E-03 3.00000E-03
9.50000E+01 2.31812E-09 2.10735E-03 3.00000E-03
1.00000E+02 1.00000E-09 1.28292E-03 3.00000E-03
1.05000E+02 9.52381E-10 7.82920E-04 3.00000E-03
1.10000E+02 9.09091E-10 2.82920E-04 3.00000E-03
1.15000E+02 8.69565E-10 1.00000E-05 3.00000E-03
1.20000E+02 8.33333E-10 0.00000E+00 3.00000E-03
