# Atmospheric Model 50012102
# Col. #1          #2           #3            #4
# Alt [km]    rho [g/cm^3] thick [g/cm^2]    n-1
0.00000E+00 1.16450E-03 1.05649E+03 3.00000E-03
1.00000E+00 1.05944E-03 9.45380E+02 3.00000E-03
2.00000E+00 9.63875E-04 8.44290E+02 3.00000E-03
3.00000E+00 8.76944E-04 7.52318E+02 3.00000E-03
4.00000E+00 7.95932E-04 6.68661E+02 3.00000E-03
5.00000E+00 7.16200E-04 5.93124E+02 3.00000E-03
6.00000E+00 6.44456E-04 5.25155E+02 3.00000E-03
7.00000E+00 5.79901E-04 4.63994E+02 3.00000E-03
8.00000E+00 5.21814E-04 4.08959E+02 3.00000E-03
9.00000E+00 4.69546E-04 3.59437E+02 3.00000E-03
1.00000E+01 4.19295E-04 3.14923E+02 3.00000E-03
1.10000E+01 3.67572E-04 2.75637E+02 3.00000E-03
1.20000E+01 3.22231E-04 2.41196E+02 3.00000E-03
1.30000E+01 2.82483E-04 2.11004E+02 3.00000E-03
1.40000E+01 2.47638E-04 1.84536E+02 3.00000E-03
1.50000E+01 2.17092E-04 1.61333E+02 3.00000E-03
1.60000E+01 1.90314E-04 1.40992E+02 3.00000E-03
1.70000E+01 1.66839E-04 1.23161E+02 3.00000E-03
1.80000E+01 1.46260E-04 1.07528E+02 3.00000E-03
1.90000E+01 1.28219E-04 9.38241E+01 3.00000E-03
2.00000E+01 1.12404E-04 8.18103E+01 3.00000E-03
2.10000E+01 9.85396E-05 7.12783E+01 3.00000E-03
2.20000E+01 8.63854E-05 6.20454E+01 3.00000E-03
2.30000E+01 7.57305E-05 5.39513E+01 3.00000E-03
2.40000E+01 6.63899E-05 4.68555E+01 3.00000E-03
2.50000E+01 5.82014E-05 4.06349E+01 3.00000E-03
2.75000E+01 4.12465E-05 2.82717E+01 3.00000E-03
3.00000E+01 2.86329E-05 1.96326E+01 3.00000E-03
3.25000E+01 1.98790E-05 1.36351E+01 3.00000E-03
3.50000E+01 1.38032E-05 9.47091E+00 3.00000E-03
3.75000E+01 9.58550E-06 6.57932E+00 3.00000E-03
4.00000E+01 6.65738E-06 4.57117E+00 3.00000E-03
4.25000E+01 4.62428E-06 3.17638E+00 3.00000E-03
4.50000E+01 3.21246E-06 2.20748E+00 3.00000E-03
4.75000E+01 2.23194E-06 1.53436E+00 3.00000E-03
5.00000E+01 1.55088E-06 1.06667E+00 3.00000E-03
5.50000E+01 7.49076E-07 5.15802E-01 3.00000E-03
6.00000E+01 3.61973E-07 2.49678E-01 3.00000E-03
6.50000E+01 1.74996E-07 1.21054E-01 3.00000E-03
7.00000E+01 8.46403E-08 5.88582E-02 3.00000E-03
7.50000E+01 4.09566E-08 2.87698E-02 3.00000E-03
8.00000E+01 1.98274E-08 1.42075E-02 3.00000E-03
8.50000E+01 9.60282E-09 7.15642E-03 3.00000E-03
9.00000E+01 4.65287E-09 3.74077E-03 3.00000E-03
9.50000E+01 2.25543E-09 2.08546E-03 3.00000E-03
1.00000E+02 1.00000E-09 1.28292E-03 3.00000E-03
1.05000E+02 9.52381E-10 7.82920E-04 3.00000E-03
1.10000E+02 9.09091E-10 2.82920E-04 3.00000E-03
1.15000E+02 8.69565E-10 1.00000E-05 3.00000E-03
1.20000E+02 8.33333E-10 0.00000E+00 3.00000E-03
