# Atmospheric Model 5001202103
# Col. #1          #2           #3            #4
# Alt [km]    rho [g/cm^3] thick [g/cm^2]    n-1
0.00000E+00 1.16194E-03 1.05723E+03 3.00000E-03
1.00000E+00 1.05760E-03 9.46338E+02 3.00000E-03
2.00000E+00 9.62647E-04 8.45401E+02 3.00000E-03
3.00000E+00 8.76234E-04 7.53524E+02 3.00000E-03
4.00000E+00 7.95672E-04 6.69915E+02 3.00000E-03
5.00000E+00 7.16109E-04 5.94396E+02 3.00000E-03
6.00000E+00 6.44503E-04 5.26429E+02 3.00000E-03
7.00000E+00 5.80059E-04 4.65257E+02 3.00000E-03
8.00000E+00 5.22060E-04 4.10202E+02 3.00000E-03
9.00000E+00 4.69861E-04 3.60652E+02 3.00000E-03
1.00000E+01 4.19761E-04 3.16101E+02 3.00000E-03
1.10000E+01 3.68102E-04 2.76764E+02 3.00000E-03
1.20000E+01 3.22800E-04 2.42269E+02 3.00000E-03
1.30000E+01 2.83075E-04 2.12019E+02 3.00000E-03
1.40000E+01 2.48238E-04 1.85491E+02 3.00000E-03
1.50000E+01 2.17689E-04 1.62228E+02 3.00000E-03
1.60000E+01 1.90900E-04 1.41828E+02 3.00000E-03
1.70000E+01 1.67408E-04 1.23938E+02 3.00000E-03
1.80000E+01 1.46807E-04 1.08250E+02 3.00000E-03
1.90000E+01 1.28741E-04 9.44924E+01 3.00000E-03
2.00000E+01 1.12899E-04 8.24277E+01 3.00000E-03
2.10000E+01 9.90062E-05 7.18476E+01 3.00000E-03
2.20000E+01 8.68232E-05 6.25695E+01 3.00000E-03
2.30000E+01 7.61395E-05 5.44330E+01 3.00000E-03
2.40000E+01 6.67705E-05 4.72978E+01 3.00000E-03
2.50000E+01 5.85545E-05 4.10405E+01 3.00000E-03
2.75000E+01 4.15768E-05 2.85927E+01 3.00000E-03
3.00000E+01 2.88972E-05 1.98794E+01 3.00000E-03
3.25000E+01 2.00869E-05 1.38231E+01 3.00000E-03
3.50000E+01 1.39644E-05 9.61299E+00 3.00000E-03
3.75000E+01 9.70916E-06 6.68597E+00 3.00000E-03
4.00000E+01 6.75137E-06 4.65076E+00 3.00000E-03
4.25000E+01 4.69518E-06 3.23548E+00 3.00000E-03
4.50000E+01 3.26560E-06 2.25118E+00 3.00000E-03
4.75000E+01 2.27155E-06 1.56654E+00 3.00000E-03
5.00000E+01 1.58027E-06 1.09028E+00 3.00000E-03
5.50000E+01 7.65050E-07 5.28403E-01 3.00000E-03
6.00000E+01 3.70543E-07 2.56328E-01 3.00000E-03
6.50000E+01 1.79545E-07 1.24527E-01 3.00000E-03
7.00000E+01 8.70338E-08 6.06517E-02 3.00000E-03
7.50000E+01 4.22066E-08 2.96827E-02 3.00000E-03
8.00000E+01 2.04761E-08 1.46618E-02 3.00000E-03
8.50000E+01 9.93761E-09 7.37336E-03 3.00000E-03
9.00000E+01 4.82485E-09 3.83546E-03 3.00000E-03
9.50000E+01 2.34341E-09 2.11747E-03 3.00000E-03
1.00000E+02 1.00000E-09 1.28292E-03 3.00000E-03
1.05000E+02 9.52381E-10 7.82920E-04 3.00000E-03
1.10000E+02 9.09091E-10 2.82920E-04 3.00000E-03
1.15000E+02 8.69565E-10 1.00000E-05 3.00000E-03
1.20000E+02 8.33333E-10 0.00000E+00 3.00000E-03
