# Atmospheric Model 50012104
# Col. #1          #2           #3            #4
# Alt [km]    rho [g/cm^3] thick [g/cm^2]    n-1
0.00000E+00 1.14954E-03 1.05389E+03 3.00000E-03
1.00000E+00 1.04794E-03 9.44096E+02 3.00000E-03
2.00000E+00 9.55334E-04 8.44004E+02 3.00000E-03
3.00000E+00 8.70922E-04 7.52756E+02 3.00000E-03
4.00000E+00 7.91943E-04 6.69592E+02 3.00000E-03
5.00000E+00 7.13400E-04 5.94394E+02 3.00000E-03
6.00000E+00 6.42649E-04 5.26653E+02 3.00000E-03
7.00000E+00 5.78917E-04 4.65630E+02 3.00000E-03
8.00000E+00 5.21507E-04 4.10659E+02 3.00000E-03
9.00000E+00 4.69793E-04 3.61139E+02 3.00000E-03
1.00000E+01 4.20066E-04 3.16574E+02 3.00000E-03
1.10000E+01 3.68444E-04 2.77205E+02 3.00000E-03
1.20000E+01 3.23167E-04 2.42674E+02 3.00000E-03
1.30000E+01 2.83455E-04 2.12386E+02 3.00000E-03
1.40000E+01 2.48624E-04 1.85821E+02 3.00000E-03
1.50000E+01 2.18073E-04 1.62519E+02 3.00000E-03
1.60000E+01 1.91278E-04 1.42081E+02 3.00000E-03
1.70000E+01 1.67775E-04 1.24154E+02 3.00000E-03
1.80000E+01 1.47161E-04 1.08430E+02 3.00000E-03
1.90000E+01 1.29080E-04 9.46373E+01 3.00000E-03
2.00000E+01 1.13221E-04 8.25396E+01 3.00000E-03
2.10000E+01 9.93106E-05 7.19282E+01 3.00000E-03
2.20000E+01 8.71097E-05 6.26205E+01 3.00000E-03
2.30000E+01 7.64081E-05 5.44563E+01 3.00000E-03
2.40000E+01 6.70214E-05 4.72951E+01 3.00000E-03
2.50000E+01 5.87880E-05 4.10136E+01 3.00000E-03
2.75000E+01 4.17398E-05 2.85130E+01 3.00000E-03
3.00000E+01 2.89403E-05 1.97755E+01 3.00000E-03
3.25000E+01 2.00680E-05 1.37170E+01 3.00000E-03
3.50000E+01 1.39172E-05 9.51569E+00 3.00000E-03
3.75000E+01 9.65263E-06 6.60193E+00 3.00000E-03
4.00000E+01 6.69555E-06 4.58091E+00 3.00000E-03
4.25000E+01 4.64486E-06 3.17896E+00 3.00000E-03
4.50000E+01 3.22259E-06 2.20634E+00 3.00000E-03
4.75000E+01 2.23606E-06 1.53151E+00 3.00000E-03
5.00000E+01 1.55169E-06 1.06324E+00 3.00000E-03
5.50000E+01 7.47456E-07 5.12734E-01 3.00000E-03
6.00000E+01 3.60198E-07 2.47506E-01 3.00000E-03
6.50000E+01 1.73649E-07 1.19670E-01 3.00000E-03
7.00000E+01 8.37475E-08 5.80302E-02 3.00000E-03
7.50000E+01 4.04055E-08 2.82976E-02 3.00000E-03
8.00000E+01 1.95018E-08 1.39501E-02 3.00000E-03
8.50000E+01 9.41613E-09 7.02415E-03 3.00000E-03
9.00000E+01 4.54810E-09 3.67951E-03 3.00000E-03
9.50000E+01 2.19758E-09 2.06376E-03 3.00000E-03
1.00000E+02 1.00000E-09 1.28292E-03 3.00000E-03
1.05000E+02 9.52381E-10 7.82920E-04 3.00000E-03
1.10000E+02 9.09091E-10 2.82920E-04 3.00000E-03
1.15000E+02 8.69565E-10 1.00000E-05 3.00000E-03
1.20000E+02 8.33333E-10 0.00000E+00 3.00000E-03
