# Atmospheric Model 50012107
# Col. #1          #2           #3            #4
# Alt [km]    rho [g/cm^3] thick [g/cm^2]    n-1
0.00000E+00 1.15970E-03 1.05737E+03 3.00000E-03
1.00000E+00 1.05589E-03 9.46675E+02 3.00000E-03
2.00000E+00 9.61383E-04 8.45886E+02 3.00000E-03
3.00000E+00 8.75350E-04 7.54116E+02 3.00000E-03
4.00000E+00 7.95059E-04 6.70579E+02 3.00000E-03
5.00000E+00 7.15107E-04 5.95141E+02 3.00000E-03
6.00000E+00 6.43196E-04 5.27289E+02 3.00000E-03
7.00000E+00 5.78517E-04 4.66261E+02 3.00000E-03
8.00000E+00 5.20342E-04 4.11369E+02 3.00000E-03
9.00000E+00 4.68018E-04 3.61998E+02 3.00000E-03
1.00000E+01 4.18426E-04 3.17622E+02 3.00000E-03
1.10000E+01 3.67405E-04 2.78386E+02 3.00000E-03
1.20000E+01 3.22605E-04 2.43934E+02 3.00000E-03
1.30000E+01 2.83268E-04 2.13683E+02 3.00000E-03
1.40000E+01 2.48728E-04 1.87121E+02 3.00000E-03
1.50000E+01 2.18400E-04 1.63797E+02 3.00000E-03
1.60000E+01 1.91769E-04 1.43318E+02 3.00000E-03
1.70000E+01 1.68386E-04 1.25335E+02 3.00000E-03
1.80000E+01 1.47855E-04 1.09545E+02 3.00000E-03
1.90000E+01 1.29826E-04 9.56810E+01 3.00000E-03
2.00000E+01 1.13996E-04 8.35070E+01 3.00000E-03
2.10000E+01 1.00097E-04 7.28174E+01 3.00000E-03
2.20000E+01 8.78919E-05 6.34312E+01 3.00000E-03
2.30000E+01 7.71752E-05 5.51894E+01 3.00000E-03
2.40000E+01 6.77653E-05 4.79526E+01 3.00000E-03
2.50000E+01 5.95028E-05 4.15981E+01 3.00000E-03
2.75000E+01 4.24429E-05 2.89197E+01 3.00000E-03
3.00000E+01 2.93998E-05 2.00390E+01 3.00000E-03
3.25000E+01 2.03674E-05 1.38871E+01 3.00000E-03
3.50000E+01 1.41117E-05 9.62498E+00 3.00000E-03
3.75000E+01 9.77849E-06 6.67178E+00 3.00000E-03
4.00000E+01 6.77666E-06 4.62529E+00 3.00000E-03
4.25000E+01 4.69689E-06 3.20696E+00 3.00000E-03
4.50000E+01 3.25578E-06 2.22386E+00 3.00000E-03
4.75000E+01 2.25710E-06 1.54236E+00 3.00000E-03
5.00000E+01 1.56493E-06 1.06988E+00 3.00000E-03
5.50000E+01 7.52551E-07 5.15096E-01 3.00000E-03
6.00000E+01 3.62054E-07 2.48255E-01 3.00000E-03
6.50000E+01 1.74264E-07 1.19851E-01 3.00000E-03
7.00000E+01 8.39141E-08 5.80362E-02 3.00000E-03
7.50000E+01 4.04255E-08 2.82641E-02 3.00000E-03
8.00000E+01 1.94835E-08 1.39187E-02 3.00000E-03
8.50000E+01 9.39432E-09 7.00347E-03 3.00000E-03
9.00000E+01 4.53159E-09 3.66853E-03 3.00000E-03
9.50000E+01 2.18686E-09 2.05953E-03 3.00000E-03
1.00000E+02 1.00000E-09 1.28292E-03 3.00000E-03
1.05000E+02 9.52381E-10 7.82920E-04 3.00000E-03
1.10000E+02 9.09091E-10 2.82920E-04 3.00000E-03
1.15000E+02 8.69565E-10 1.00000E-05 3.00000E-03
1.20000E+02 8.33333E-10 0.00000E+00 3.00000E-03
