# Atmospheric Model 5001202109
# Col. #1          #2           #3            #4
# Alt [km]    rho [g/cm^3] thick [g/cm^2]    n-1
0.00000E+00 1.15580E-03 1.05619E+03 3.00000E-03
1.00000E+00 1.05251E-03 9.45860E+02 3.00000E-03
2.00000E+00 9.58466E-04 8.45385E+02 3.00000E-03
3.00000E+00 8.72836E-04 7.53887E+02 3.00000E-03
4.00000E+00 7.92862E-04 6.70584E+02 3.00000E-03
5.00000E+00 7.13407E-04 5.95340E+02 3.00000E-03
6.00000E+00 6.41915E-04 5.27637E+02 3.00000E-03
7.00000E+00 5.77589E-04 4.66718E+02 3.00000E-03
8.00000E+00 5.19708E-04 4.11904E+02 3.00000E-03
9.00000E+00 4.67629E-04 3.62583E+02 3.00000E-03
1.00000E+01 4.18213E-04 3.18237E+02 3.00000E-03
1.10000E+01 3.67342E-04 2.79014E+02 3.00000E-03
1.20000E+01 3.22660E-04 2.44563E+02 3.00000E-03
1.30000E+01 2.83412E-04 2.14301E+02 3.00000E-03
1.40000E+01 2.48939E-04 1.87721E+02 3.00000E-03
1.50000E+01 2.18660E-04 1.64374E+02 3.00000E-03
1.60000E+01 1.92063E-04 1.43866E+02 3.00000E-03
1.70000E+01 1.68702E-04 1.25853E+02 3.00000E-03
1.80000E+01 1.48182E-04 1.10031E+02 3.00000E-03
1.90000E+01 1.30159E-04 9.61338E+01 3.00000E-03
2.00000E+01 1.14327E-04 8.39267E+01 3.00000E-03
2.10000E+01 1.00422E-04 7.32042E+01 3.00000E-03
2.20000E+01 8.82075E-05 6.37860E+01 3.00000E-03
2.30000E+01 7.74789E-05 5.55132E+01 3.00000E-03
2.40000E+01 6.80554E-05 4.82467E+01 3.00000E-03
2.50000E+01 5.97780E-05 4.18640E+01 3.00000E-03
2.75000E+01 4.26493E-05 2.91239E+01 3.00000E-03
3.00000E+01 2.95651E-05 2.01968E+01 3.00000E-03
3.25000E+01 2.04978E-05 1.40081E+01 3.00000E-03
3.50000E+01 1.42133E-05 9.71709E+00 3.00000E-03
3.75000E+01 9.85698E-06 6.74148E+00 3.00000E-03
4.00000E+01 6.83679E-06 4.67775E+00 3.00000E-03
4.25000E+01 4.74263E-06 3.24626E+00 3.00000E-03
4.50000E+01 3.29037E-06 2.25318E+00 3.00000E-03
4.75000E+01 2.28312E-06 1.56416E+00 3.00000E-03
5.00000E+01 1.58442E-06 1.08603E+00 3.00000E-03
5.50000E+01 7.63349E-07 5.23872E-01 3.00000E-03
6.00000E+01 3.67961E-07 2.52973E-01 3.00000E-03
6.50000E+01 1.77460E-07 1.22360E-01 3.00000E-03
7.00000E+01 8.56284E-08 5.93549E-02 3.00000E-03
7.50000E+01 4.13378E-08 2.89468E-02 3.00000E-03
8.00000E+01 1.99657E-08 1.42639E-02 3.00000E-03
8.50000E+01 9.64779E-09 7.17076E-03 3.00000E-03
9.00000E+01 4.66414E-09 3.74252E-03 3.00000E-03
9.50000E+01 2.25586E-09 2.08483E-03 3.00000E-03
1.00000E+02 1.00000E-09 1.28292E-03 3.00000E-03
1.05000E+02 9.52381E-10 7.82920E-04 3.00000E-03
1.10000E+02 9.09091E-10 2.82920E-04 3.00000E-03
1.15000E+02 8.69565E-10 1.00000E-05 3.00000E-03
1.20000E+02 8.33333E-10 0.00000E+00 3.00000E-03
