# Atmospheric Model 5001202101
# Col. #1          #2           #3            #4
# Alt [km]    rho [g/cm^3] thick [g/cm^2]    n-1
0.00000E+00 1.16886E-03 1.05782E+03 3.00000E-03
1.00000E+00 1.06267E-03 9.46333E+02 3.00000E-03
2.00000E+00 9.66131E-04 8.44969E+02 3.00000E-03
3.00000E+00 8.78374E-04 7.52814E+02 3.00000E-03
4.00000E+00 7.96788E-04 6.69048E+02 3.00000E-03
5.00000E+00 7.16888E-04 5.93435E+02 3.00000E-03
6.00000E+00 6.45001E-04 5.25404E+02 3.00000E-03
7.00000E+00 5.80325E-04 4.64195E+02 3.00000E-03
8.00000E+00 5.22135E-04 4.09123E+02 3.00000E-03
9.00000E+00 4.69781E-04 3.59573E+02 3.00000E-03
1.00000E+01 4.19431E-04 3.15041E+02 3.00000E-03
1.10000E+01 3.67707E-04 2.75740E+02 3.00000E-03
1.20000E+01 3.22362E-04 2.41287E+02 3.00000E-03
1.30000E+01 2.82610E-04 2.11082E+02 3.00000E-03
1.40000E+01 2.47760E-04 1.84601E+02 3.00000E-03
1.50000E+01 2.17207E-04 1.61386E+02 3.00000E-03
1.60000E+01 1.90423E-04 1.41034E+02 3.00000E-03
1.70000E+01 1.66941E-04 1.23192E+02 3.00000E-03
1.80000E+01 1.46356E-04 1.07550E+02 3.00000E-03
1.90000E+01 1.28308E-04 9.38362E+01 3.00000E-03
2.00000E+01 1.12487E-04 8.18138E+01 3.00000E-03
2.10000E+01 9.86163E-05 7.12738E+01 3.00000E-03
2.20000E+01 8.64563E-05 6.20335E+01 3.00000E-03
2.30000E+01 7.57957E-05 5.39326E+01 3.00000E-03
2.40000E+01 6.64498E-05 4.68306E+01 3.00000E-03
2.50000E+01 5.82563E-05 4.06043E+01 3.00000E-03
2.75000E+01 4.12439E-05 2.82336E+01 3.00000E-03
3.00000E+01 2.86185E-05 1.95968E+01 3.00000E-03
3.25000E+01 1.98601E-05 1.36035E+01 3.00000E-03
3.50000E+01 1.37836E-05 9.44422E+00 3.00000E-03
3.75000E+01 9.56736E-06 6.55737E+00 3.00000E-03
4.00000E+01 6.64150E-06 4.55348E+00 3.00000E-03
4.25000E+01 4.61090E-06 3.16235E+00 3.00000E-03
4.50000E+01 3.20149E-06 2.19649E+00 3.00000E-03
4.75000E+01 2.22312E-06 1.52584E+00 3.00000E-03
5.00000E+01 1.54390E-06 1.06012E+00 3.00000E-03
5.50000E+01 7.44839E-07 5.12007E-01 3.00000E-03
6.00000E+01 3.59487E-07 2.47529E-01 3.00000E-03
6.50000E+01 1.73572E-07 1.19859E-01 3.00000E-03
7.00000E+01 8.38388E-08 5.82054E-02 3.00000E-03
7.50000E+01 4.05117E-08 2.84203E-02 3.00000E-03
8.00000E+01 1.95831E-08 1.40254E-02 3.00000E-03
8.50000E+01 9.46998E-09 7.06587E-03 3.00000E-03
9.00000E+01 4.58119E-09 3.69982E-03 3.00000E-03
9.50000E+01 2.21700E-09 2.07120E-03 3.00000E-03
1.00000E+02 1.00000E-09 1.28292E-03 3.00000E-03
1.05000E+02 9.52381E-10 7.82920E-04 3.00000E-03
1.10000E+02 9.09091E-10 2.82920E-04 3.00000E-03
1.15000E+02 8.69565E-10 1.00000E-05 3.00000E-03
1.20000E+02 8.33333E-10 0.00000E+00 3.00000E-03
