# Atmospheric Model 5002202107
# Col. #1          #2           #3            #4
# Alt [km]    rho [g/cm^3] thick [g/cm^2]    n-1
0.00000E+00 1.16383E-03 1.05741E+03 3.00000E-03
1.00000E+00 1.05794E-03 9.46408E+02 3.00000E-03
2.00000E+00 9.61702E-04 8.45503E+02 3.00000E-03
3.00000E+00 8.74229E-04 7.53776E+02 3.00000E-03
4.00000E+00 7.93177E-04 6.70407E+02 3.00000E-03
5.00000E+00 7.13955E-04 5.95120E+02 3.00000E-03
6.00000E+00 6.42647E-04 5.27352E+02 3.00000E-03
7.00000E+00 5.78461E-04 4.66353E+02 3.00000E-03
8.00000E+00 5.20686E-04 4.11446E+02 3.00000E-03
9.00000E+00 4.68682E-04 3.62023E+02 3.00000E-03
1.00000E+01 4.19234E-04 3.17570E+02 3.00000E-03
1.10000E+01 3.67979E-04 2.78265E+02 3.00000E-03
1.20000E+01 3.22990E-04 2.43766E+02 3.00000E-03
1.30000E+01 2.83502E-04 2.13484E+02 3.00000E-03
1.40000E+01 2.48841E-04 1.86904E+02 3.00000E-03
1.50000E+01 2.18418E-04 1.63574E+02 3.00000E-03
1.60000E+01 1.91715E-04 1.43097E+02 3.00000E-03
1.70000E+01 1.68277E-04 1.25123E+02 3.00000E-03
1.80000E+01 1.47704E-04 1.09346E+02 3.00000E-03
1.90000E+01 1.29646E-04 9.54981E+01 3.00000E-03
2.00000E+01 1.13796E-04 8.33432E+01 3.00000E-03
2.10000E+01 9.98840E-05 7.26743E+01 3.00000E-03
2.20000E+01 8.76727E-05 6.33097E+01 3.00000E-03
2.30000E+01 7.69544E-05 5.50900E+01 3.00000E-03
2.40000E+01 6.75464E-05 4.78752E+01 3.00000E-03
2.50000E+01 5.92887E-05 4.15424E+01 3.00000E-03
2.75000E+01 4.22791E-05 2.89140E+01 3.00000E-03
3.00000E+01 2.93248E-05 2.00622E+01 3.00000E-03
3.25000E+01 2.03424E-05 1.39221E+01 3.00000E-03
3.50000E+01 1.41133E-05 9.66256E+00 3.00000E-03
3.75000E+01 9.79286E-06 6.70715E+00 3.00000E-03
4.00000E+01 6.79593E-06 4.65633E+00 3.00000E-03
4.25000E+01 4.71677E-06 3.23305E+00 3.00000E-03
4.50000E+01 3.27413E-06 2.24514E+00 3.00000E-03
4.75000E+01 2.27302E-06 1.55935E+00 3.00000E-03
5.00000E+01 1.57821E-06 1.08322E+00 3.00000E-03
5.50000E+01 7.61118E-07 5.23020E-01 3.00000E-03
6.00000E+01 3.67243E-07 2.52796E-01 3.00000E-03
6.50000E+01 1.77282E-07 1.22384E-01 3.00000E-03
7.00000E+01 8.56210E-08 5.94163E-02 3.00000E-03
7.50000E+01 4.13713E-08 2.89987E-02 3.00000E-03
8.00000E+01 1.99994E-08 1.42982E-02 3.00000E-03
8.50000E+01 9.67223E-09 7.19045E-03 3.00000E-03
9.00000E+01 4.67980E-09 3.75228E-03 3.00000E-03
9.50000E+01 2.26524E-09 2.08844E-03 3.00000E-03
1.00000E+02 1.00000E-09 1.28292E-03 3.00000E-03
1.05000E+02 9.52381E-10 7.82920E-04 3.00000E-03
1.10000E+02 9.09091E-10 2.82920E-04 3.00000E-03
1.15000E+02 8.69565E-10 1.00000E-05 3.00000E-03
1.20000E+02 8.33333E-10 0.00000E+00 3.00000E-03
