# Atmospheric Model 50022108
# Col. #1          #2           #3            #4
# Alt [km]    rho [g/cm^3] thick [g/cm^2]    n-1
0.00000E+00 1.16326E-03 1.05744E+03 3.00000E-03
1.00000E+00 1.05758E-03 9.46479E+02 3.00000E-03
2.00000E+00 9.61507E-04 8.45601E+02 3.00000E-03
3.00000E+00 8.74171E-04 7.53887E+02 3.00000E-03
4.00000E+00 7.93095E-04 6.70520E+02 3.00000E-03
5.00000E+00 7.13574E-04 5.95256E+02 3.00000E-03
6.00000E+00 6.42026E-04 5.27539E+02 3.00000E-03
7.00000E+00 5.77653E-04 4.66612E+02 3.00000E-03
8.00000E+00 5.19735E-04 4.11794E+02 3.00000E-03
9.00000E+00 4.67624E-04 3.62472E+02 3.00000E-03
1.00000E+01 4.18244E-04 3.18126E+02 3.00000E-03
1.10000E+01 3.67343E-04 2.78902E+02 3.00000E-03
1.20000E+01 3.22636E-04 2.44451E+02 3.00000E-03
1.30000E+01 2.83370E-04 2.14193E+02 3.00000E-03
1.40000E+01 2.48884E-04 1.87618E+02 3.00000E-03
1.50000E+01 2.18594E-04 1.64276E+02 3.00000E-03
1.60000E+01 1.91991E-04 1.43776E+02 3.00000E-03
1.70000E+01 1.68626E-04 1.25770E+02 3.00000E-03
1.80000E+01 1.48104E-04 1.09956E+02 3.00000E-03
1.90000E+01 1.30080E-04 9.60663E+01 3.00000E-03
2.00000E+01 1.14249E-04 8.38670E+01 3.00000E-03
2.10000E+01 1.00345E-04 7.31523E+01 3.00000E-03
2.20000E+01 8.81336E-05 6.37415E+01 3.00000E-03
2.30000E+01 7.74079E-05 5.54761E+01 3.00000E-03
2.40000E+01 6.79877E-05 4.82165E+01 3.00000E-03
2.50000E+01 5.97138E-05 4.18403E+01 3.00000E-03
2.75000E+01 4.26112E-05 2.91140E+01 3.00000E-03
3.00000E+01 2.95458E-05 2.01939E+01 3.00000E-03
3.25000E+01 2.04890E-05 1.40086E+01 3.00000E-03
3.50000E+01 1.42102E-05 9.71898E+00 3.00000E-03
3.75000E+01 9.85665E-06 6.74376E+00 3.00000E-03
4.00000E+01 6.83773E-06 4.67994E+00 3.00000E-03
4.25000E+01 4.74402E-06 3.24814E+00 3.00000E-03
4.50000E+01 3.29179E-06 2.25471E+00 3.00000E-03
4.75000E+01 2.28439E-06 1.56534E+00 3.00000E-03
5.00000E+01 1.58547E-06 1.08692E+00 3.00000E-03
5.50000E+01 7.63983E-07 5.24351E-01 3.00000E-03
6.00000E+01 3.68307E-07 2.53212E-01 3.00000E-03
6.50000E+01 1.77636E-07 1.22474E-01 3.00000E-03
7.00000E+01 8.57129E-08 5.94055E-02 3.00000E-03
7.50000E+01 4.13763E-08 2.89680E-02 3.00000E-03
8.00000E+01 1.99822E-08 1.42721E-02 3.00000E-03
8.50000E+01 9.65430E-09 7.17350E-03 3.00000E-03
9.00000E+01 4.66636E-09 3.74323E-03 3.00000E-03
9.50000E+01 2.25639E-09 2.08493E-03 3.00000E-03
1.00000E+02 1.00000E-09 1.28292E-03 3.00000E-03
1.05000E+02 9.52381E-10 7.82920E-04 3.00000E-03
1.10000E+02 9.09091E-10 2.82920E-04 3.00000E-03
1.15000E+02 8.69565E-10 1.00000E-05 3.00000E-03
1.20000E+02 8.33333E-10 0.00000E+00 3.00000E-03
