# Atmospheric Model 5002202102
# Col. #1          #2           #3            #4
# Alt [km]    rho [g/cm^3] thick [g/cm^2]    n-1
0.00000E+00 1.16471E-03 1.05646E+03 3.00000E-03
1.00000E+00 1.05955E-03 9.45333E+02 3.00000E-03
2.00000E+00 9.63885E-04 8.44237E+02 3.00000E-03
3.00000E+00 8.76873E-04 7.52268E+02 3.00000E-03
4.00000E+00 7.95902E-04 6.68620E+02 3.00000E-03
5.00000E+00 7.16360E-04 5.93077E+02 3.00000E-03
6.00000E+00 6.44767E-04 5.25084E+02 3.00000E-03
7.00000E+00 5.80331E-04 4.63885E+02 3.00000E-03
8.00000E+00 5.22334E-04 4.08803E+02 3.00000E-03
9.00000E+00 4.70134E-04 3.59225E+02 3.00000E-03
1.00000E+01 4.19862E-04 3.14651E+02 3.00000E-03
1.10000E+01 3.67956E-04 2.75317E+02 3.00000E-03
1.20000E+01 3.22466E-04 2.40846E+02 3.00000E-03
1.30000E+01 2.82600E-04 2.10637E+02 3.00000E-03
1.40000E+01 2.47663E-04 1.84162E+02 3.00000E-03
1.50000E+01 2.17046E-04 1.60960E+02 3.00000E-03
1.60000E+01 1.90213E-04 1.40627E+02 3.00000E-03
1.70000E+01 1.66698E-04 1.22807E+02 3.00000E-03
1.80000E+01 1.46090E-04 1.07190E+02 3.00000E-03
1.90000E+01 1.28030E-04 9.35040E+01 3.00000E-03
2.00000E+01 1.12203E-04 8.15098E+01 3.00000E-03
2.10000E+01 9.83318E-05 7.09983E+01 3.00000E-03
2.20000E+01 8.61758E-05 6.17863E+01 3.00000E-03
2.30000E+01 7.55227E-05 5.37131E+01 3.00000E-03
2.40000E+01 6.61865E-05 4.66379E+01 3.00000E-03
2.50000E+01 5.80045E-05 4.04374E+01 3.00000E-03
2.75000E+01 4.10825E-05 2.81200E+01 3.00000E-03
3.00000E+01 2.85053E-05 1.95172E+01 3.00000E-03
3.25000E+01 1.97807E-05 1.35478E+01 3.00000E-03
3.50000E+01 1.37280E-05 9.40517E+00 3.00000E-03
3.75000E+01 9.52833E-06 6.53004E+00 3.00000E-03
4.00000E+01 6.61415E-06 4.53436E+00 3.00000E-03
4.25000E+01 4.59175E-06 3.14898E+00 3.00000E-03
4.50000E+01 3.18808E-06 2.18716E+00 3.00000E-03
4.75000E+01 2.21374E-06 1.51932E+00 3.00000E-03
5.00000E+01 1.53734E-06 1.05557E+00 3.00000E-03
5.50000E+01 7.41640E-07 5.09799E-01 3.00000E-03
6.00000E+01 3.57931E-07 2.46461E-01 3.00000E-03
6.50000E+01 1.72817E-07 1.19345E-01 3.00000E-03
7.00000E+01 8.34741E-08 5.79601E-02 3.00000E-03
7.50000E+01 4.03362E-08 2.83044E-02 3.00000E-03
8.00000E+01 1.94990E-08 1.39717E-02 3.00000E-03
8.50000E+01 9.42985E-09 7.04186E-03 3.00000E-03
9.00000E+01 4.56213E-09 3.68996E-03 3.00000E-03
9.50000E+01 2.20801E-09 2.06804E-03 3.00000E-03
1.00000E+02 1.00000E-09 1.28292E-03 3.00000E-03
1.05000E+02 9.52381E-10 7.82920E-04 3.00000E-03
1.10000E+02 9.09091E-10 2.82920E-04 3.00000E-03
1.15000E+02 8.69565E-10 1.00000E-05 3.00000E-03
1.20000E+02 8.33333E-10 0.00000E+00 3.00000E-03
