# Atmospheric Model 5002202103
# Col. #1          #2           #3            #4
# Alt [km]    rho [g/cm^3] thick [g/cm^2]    n-1
0.00000E+00 1.16292E-03 1.05737E+03 3.00000E-03
1.00000E+00 1.05815E-03 9.46397E+02 3.00000E-03
2.00000E+00 9.62839E-04 8.45422E+02 3.00000E-03
3.00000E+00 8.76124E-04 7.53543E+02 3.00000E-03
4.00000E+00 7.95440E-04 6.69956E+02 3.00000E-03
5.00000E+00 7.16036E-04 5.94452E+02 3.00000E-03
6.00000E+00 6.44560E-04 5.26484E+02 3.00000E-03
7.00000E+00 5.80219E-04 4.65302E+02 3.00000E-03
8.00000E+00 5.22301E-04 4.10227E+02 3.00000E-03
9.00000E+00 4.70166E-04 3.60649E+02 3.00000E-03
1.00000E+01 4.20105E-04 3.16065E+02 3.00000E-03
1.10000E+01 3.68371E-04 2.76698E+02 3.00000E-03
1.20000E+01 3.23008E-04 2.42179E+02 3.00000E-03
1.30000E+01 2.83231E-04 2.11910E+02 3.00000E-03
1.40000E+01 2.48354E-04 1.85369E+02 3.00000E-03
1.50000E+01 2.17771E-04 1.62096E+02 3.00000E-03
1.60000E+01 1.90954E-04 1.41689E+02 3.00000E-03
1.70000E+01 1.67440E-04 1.23795E+02 3.00000E-03
1.80000E+01 1.46822E-04 1.08105E+02 3.00000E-03
1.90000E+01 1.28743E-04 9.43464E+01 3.00000E-03
2.00000E+01 1.12890E-04 8.22821E+01 3.00000E-03
2.10000E+01 9.89893E-05 7.17034E+01 3.00000E-03
2.20000E+01 8.68004E-05 6.24272E+01 3.00000E-03
2.30000E+01 7.61124E-05 5.42933E+01 3.00000E-03
2.40000E+01 6.67406E-05 4.71609E+01 3.00000E-03
2.50000E+01 5.85228E-05 4.09067E+01 3.00000E-03
2.75000E+01 4.15300E-05 2.84678E+01 3.00000E-03
3.00000E+01 2.88321E-05 1.97689E+01 3.00000E-03
3.25000E+01 2.00185E-05 1.37295E+01 3.00000E-03
3.50000E+01 1.39004E-05 9.53607E+00 3.00000E-03
3.75000E+01 9.65306E-06 6.62410E+00 3.00000E-03
4.00000E+01 6.70414E-06 4.60182E+00 3.00000E-03
4.25000E+01 4.65652E-06 3.19726E+00 3.00000E-03
4.50000E+01 3.23459E-06 2.22165E+00 3.00000E-03
4.75000E+01 2.24707E-06 1.54392E+00 3.00000E-03
5.00000E+01 1.56119E-06 1.07309E+00 3.00000E-03
5.50000E+01 7.53785E-07 5.18640E-01 3.00000E-03
6.00000E+01 3.64078E-07 2.50896E-01 3.00000E-03
6.50000E+01 1.75911E-07 1.21556E-01 3.00000E-03
7.00000E+01 8.50244E-08 5.90532E-02 3.00000E-03
7.50000E+01 4.11094E-08 2.88387E-02 3.00000E-03
8.00000E+01 1.98831E-08 1.42278E-02 3.00000E-03
8.50000E+01 9.61992E-09 7.16004E-03 3.00000E-03
9.00000E+01 4.65586E-09 3.73998E-03 3.00000E-03
9.50000E+01 2.25407E-09 2.08451E-03 3.00000E-03
1.00000E+02 1.00000E-09 1.28292E-03 3.00000E-03
1.05000E+02 9.52381E-10 7.82920E-04 3.00000E-03
1.10000E+02 9.09091E-10 2.82920E-04 3.00000E-03
1.15000E+02 8.69565E-10 1.00000E-05 3.00000E-03
1.20000E+02 8.33333E-10 0.00000E+00 3.00000E-03
