# Atmospheric Model 5105202104
# Col. #1          #2           #3            #4
# Alt [km]    rho [g/cm^3] thick [g/cm^2]    n-1
0.00000E+00 1.14654E-03 1.05067E+03 3.00000E-03
1.00000E+00 1.04274E-03 9.41284E+02 3.00000E-03
2.00000E+00 9.48331E-04 8.41805E+02 3.00000E-03
3.00000E+00 8.62471E-04 7.51333E+02 3.00000E-03
4.00000E+00 7.84385E-04 6.69052E+02 3.00000E-03
5.00000E+00 7.08254E-04 5.94449E+02 3.00000E-03
6.00000E+00 6.38816E-04 5.27155E+02 3.00000E-03
7.00000E+00 5.76190E-04 4.66459E+02 3.00000E-03
8.00000E+00 5.19706E-04 4.11712E+02 3.00000E-03
9.00000E+00 4.68763E-04 3.62333E+02 3.00000E-03
1.00000E+01 4.19755E-04 3.17835E+02 3.00000E-03
1.10000E+01 3.68487E-04 2.78479E+02 3.00000E-03
1.20000E+01 3.23481E-04 2.43929E+02 3.00000E-03
1.30000E+01 2.83973E-04 2.13599E+02 3.00000E-03
1.40000E+01 2.49290E-04 1.86974E+02 3.00000E-03
1.50000E+01 2.18844E-04 1.63600E+02 3.00000E-03
1.60000E+01 1.92116E-04 1.43081E+02 3.00000E-03
1.70000E+01 1.68653E-04 1.25068E+02 3.00000E-03
1.80000E+01 1.48056E-04 1.09255E+02 3.00000E-03
1.90000E+01 1.29974E-04 9.53729E+01 3.00000E-03
2.00000E+01 1.14101E-04 8.31864E+01 3.00000E-03
2.10000E+01 1.00166E-04 7.24882E+01 3.00000E-03
2.20000E+01 8.79335E-05 6.30965E+01 3.00000E-03
2.30000E+01 7.71949E-05 5.48517E+01 3.00000E-03
2.40000E+01 6.77677E-05 4.76138E+01 3.00000E-03
2.50000E+01 5.94919E-05 4.12598E+01 3.00000E-03
2.75000E+01 4.22268E-05 2.86030E+01 3.00000E-03
3.00000E+01 2.91857E-05 1.97767E+01 3.00000E-03
3.25000E+01 2.01748E-05 1.36759E+01 3.00000E-03
3.50000E+01 1.39478E-05 9.45835E+00 3.00000E-03
3.75000E+01 9.64409E-06 6.54240E+00 3.00000E-03
4.00000E+01 6.66920E-06 4.52607E+00 3.00000E-03
4.25000E+01 4.61257E-06 3.13163E+00 3.00000E-03
4.50000E+01 3.19058E-06 2.16714E+00 3.00000E-03
4.75000E+01 2.20726E-06 1.49995E+00 3.00000E-03
5.00000E+01 1.52719E-06 1.03835E+00 3.00000E-03
5.50000E+01 7.31377E-07 4.97930E-01 3.00000E-03
6.00000E+01 3.50439E-07 2.39061E-01 3.00000E-03
6.50000E+01 1.67997E-07 1.14996E-01 3.00000E-03
7.00000E+01 8.05770E-08 5.55074E-02 3.00000E-03
7.50000E+01 3.86665E-08 2.69685E-02 3.00000E-03
8.00000E+01 1.85640E-08 1.32706E-02 3.00000E-03
8.50000E+01 8.91701E-09 6.69271E-03 3.00000E-03
9.00000E+01 4.28523E-09 3.53245E-03 3.00000E-03
9.50000E+01 2.06031E-09 2.01341E-03 3.00000E-03
1.00000E+02 1.00000E-09 1.28292E-03 3.00000E-03
1.05000E+02 9.52381E-10 7.82920E-04 3.00000E-03
1.10000E+02 9.09091E-10 2.82920E-04 3.00000E-03
1.15000E+02 8.69565E-10 1.00000E-05 3.00000E-03
1.20000E+02 8.33333E-10 0.00000E+00 3.00000E-03
