# Atmospheric Model 51052106
# Col. #1          #2           #3            #4
# Alt [km]    rho [g/cm^3] thick [g/cm^2]    n-1
0.00000E+00 1.15062E-03 1.05134E+03 3.00000E-03
1.00000E+00 1.04612E-03 9.41584E+02 3.00000E-03
2.00000E+00 9.51106E-04 8.41798E+02 3.00000E-03
3.00000E+00 8.64723E-04 7.51075E+02 3.00000E-03
4.00000E+00 7.86186E-04 6.68592E+02 3.00000E-03
5.00000E+00 7.10023E-04 5.93813E+02 3.00000E-03
6.00000E+00 6.40592E-04 5.26342E+02 3.00000E-03
7.00000E+00 5.77954E-04 4.65468E+02 3.00000E-03
8.00000E+00 5.21444E-04 4.10547E+02 3.00000E-03
9.00000E+00 4.70463E-04 3.60995E+02 3.00000E-03
1.00000E+01 4.21124E-04 3.16335E+02 3.00000E-03
1.10000E+01 3.69172E-04 2.76877E+02 3.00000E-03
1.20000E+01 3.23630E-04 2.42287E+02 3.00000E-03
1.30000E+01 2.83706E-04 2.11964E+02 3.00000E-03
1.40000E+01 2.48708E-04 1.85381E+02 3.00000E-03
1.50000E+01 2.18028E-04 1.62078E+02 3.00000E-03
1.60000E+01 1.91133E-04 1.41649E+02 3.00000E-03
1.70000E+01 1.67555E-04 1.23741E+02 3.00000E-03
1.80000E+01 1.46887E-04 1.08042E+02 3.00000E-03
1.90000E+01 1.28768E-04 9.42787E+01 3.00000E-03
2.00000E+01 1.12884E-04 8.22135E+01 3.00000E-03
2.10000E+01 9.89596E-05 7.16366E+01 3.00000E-03
2.20000E+01 8.67530E-05 6.23644E+01 3.00000E-03
2.30000E+01 7.60522E-05 5.42359E+01 3.00000E-03
2.40000E+01 6.66714E-05 4.71100E+01 3.00000E-03
2.50000E+01 5.84478E-05 4.08630E+01 3.00000E-03
2.75000E+01 4.15286E-05 2.84361E+01 3.00000E-03
3.00000E+01 2.88188E-05 1.97392E+01 3.00000E-03
3.25000E+01 2.00010E-05 1.37038E+01 3.00000E-03
3.50000E+01 1.38827E-05 9.51480E+00 3.00000E-03
3.75000E+01 9.63707E-06 6.60707E+00 3.00000E-03
4.00000E+01 6.69057E-06 4.58848E+00 3.00000E-03
4.25000E+01 4.64545E-06 3.18700E+00 3.00000E-03
4.50000E+01 3.22581E-06 2.21387E+00 3.00000E-03
4.75000E+01 2.24025E-06 1.53808E+00 3.00000E-03
5.00000E+01 1.55597E-06 1.06874E+00 3.00000E-03
5.50000E+01 7.50837E-07 5.16294E-01 3.00000E-03
6.00000E+01 3.62469E-07 2.49658E-01 3.00000E-03
6.50000E+01 1.75055E-07 1.20915E-01 3.00000E-03
7.00000E+01 8.45774E-08 5.87277E-02 3.00000E-03
7.50000E+01 4.08797E-08 2.86766E-02 3.00000E-03
8.00000E+01 1.97666E-08 1.41492E-02 3.00000E-03
8.50000E+01 9.56147E-09 7.12349E-03 3.00000E-03
9.00000E+01 4.62683E-09 3.72447E-03 3.00000E-03
9.50000E+01 2.23978E-09 2.07940E-03 3.00000E-03
1.00000E+02 1.00000E-09 1.28292E-03 3.00000E-03
1.05000E+02 9.52381E-10 7.82920E-04 3.00000E-03
1.10000E+02 9.09091E-10 2.82920E-04 3.00000E-03
1.15000E+02 8.69565E-10 1.00000E-05 3.00000E-03
1.20000E+02 8.33333E-10 0.00000E+00 3.00000E-03
