# Atmospheric Model 5105202101
# Col. #1          #2           #3            #4
# Alt [km]    rho [g/cm^3] thick [g/cm^2]    n-1
0.00000E+00 1.14426E-03 1.04915E+03 3.00000E-03
1.00000E+00 1.04054E-03 9.39988E+02 3.00000E-03
2.00000E+00 9.46214E-04 8.40725E+02 3.00000E-03
3.00000E+00 8.60440E-04 7.50460E+02 3.00000E-03
4.00000E+00 7.82442E-04 6.68378E+02 3.00000E-03
5.00000E+00 7.06799E-04 5.93940E+02 3.00000E-03
6.00000E+00 6.37638E-04 5.26777E+02 3.00000E-03
7.00000E+00 5.75251E-04 4.66186E+02 3.00000E-03
8.00000E+00 5.18973E-04 4.11524E+02 3.00000E-03
9.00000E+00 4.68205E-04 3.62208E+02 3.00000E-03
1.00000E+01 4.19336E-04 3.17758E+02 3.00000E-03
1.10000E+01 3.68127E-04 2.78441E+02 3.00000E-03
1.20000E+01 3.23173E-04 2.43925E+02 3.00000E-03
1.30000E+01 2.83709E-04 2.13623E+02 3.00000E-03
1.40000E+01 2.49064E-04 1.87022E+02 3.00000E-03
1.50000E+01 2.18651E-04 1.63670E+02 3.00000E-03
1.60000E+01 1.91953E-04 1.43168E+02 3.00000E-03
1.70000E+01 1.68514E-04 1.25170E+02 3.00000E-03
1.80000E+01 1.47938E-04 1.09370E+02 3.00000E-03
1.90000E+01 1.29875E-04 9.54990E+01 3.00000E-03
2.00000E+01 1.14018E-04 8.33216E+01 3.00000E-03
2.10000E+01 1.00097E-04 7.26310E+01 3.00000E-03
2.20000E+01 8.78757E-05 6.32456E+01 3.00000E-03
2.30000E+01 7.71469E-05 5.50061E+01 3.00000E-03
2.40000E+01 6.77283E-05 4.77726E+01 3.00000E-03
2.50000E+01 5.94597E-05 4.14222E+01 3.00000E-03
2.75000E+01 4.22018E-05 2.87750E+01 3.00000E-03
3.00000E+01 2.92397E-05 1.99438E+01 3.00000E-03
3.25000E+01 2.02614E-05 1.38247E+01 3.00000E-03
3.50000E+01 1.40417E-05 9.58422E+00 3.00000E-03
3.75000E+01 9.73248E-06 6.64531E+00 3.00000E-03
4.00000E+01 6.74653E-06 4.60820E+00 3.00000E-03
4.25000E+01 4.67725E-06 3.19600E+00 3.00000E-03
4.50000E+01 3.24305E-06 2.21689E+00 3.00000E-03
4.75000E+01 2.24889E-06 1.53797E+00 3.00000E-03
5.00000E+01 1.55968E-06 1.06714E+00 3.00000E-03
5.50000E+01 7.50455E-07 5.14079E-01 3.00000E-03
6.00000E+01 3.61258E-07 2.47912E-01 3.00000E-03
6.50000E+01 1.73985E-07 1.19758E-01 3.00000E-03
7.00000E+01 8.38306E-08 5.80249E-02 3.00000E-03
7.50000E+01 4.04100E-08 2.82745E-02 3.00000E-03
8.00000E+01 1.94881E-08 1.39306E-02 3.00000E-03
8.50000E+01 9.40237E-09 7.01190E-03 3.00000E-03
9.00000E+01 4.53829E-09 3.67319E-03 3.00000E-03
9.50000E+01 2.19145E-09 2.06137E-03 3.00000E-03
1.00000E+02 1.00000E-09 1.28292E-03 3.00000E-03
1.05000E+02 9.52381E-10 7.82920E-04 3.00000E-03
1.10000E+02 9.09091E-10 2.82920E-04 3.00000E-03
1.15000E+02 8.69565E-10 1.00000E-05 3.00000E-03
1.20000E+02 8.33333E-10 0.00000E+00 3.00000E-03
