# Atmospheric Model 5105202102
# Col. #1          #2           #3            #4
# Alt [km]    rho [g/cm^3] thick [g/cm^2]    n-1
0.00000E+00 1.14312E-03 1.04936E+03 3.00000E-03
1.00000E+00 1.03967E-03 9.40302E+02 3.00000E-03
2.00000E+00 9.45593E-04 8.41113E+02 3.00000E-03
3.00000E+00 8.60025E-04 7.50899E+02 3.00000E-03
4.00000E+00 7.82200E-04 6.68850E+02 3.00000E-03
5.00000E+00 7.06443E-04 5.94447E+02 3.00000E-03
6.00000E+00 6.37346E-04 5.27317E+02 3.00000E-03
7.00000E+00 5.75012E-04 4.66752E+02 3.00000E-03
8.00000E+00 5.18778E-04 4.12111E+02 3.00000E-03
9.00000E+00 4.68046E-04 3.62814E+02 3.00000E-03
1.00000E+01 4.19277E-04 3.18377E+02 3.00000E-03
1.10000E+01 3.68167E-04 2.79060E+02 3.00000E-03
1.20000E+01 3.23287E-04 2.44536E+02 3.00000E-03
1.30000E+01 2.83878E-04 2.14220E+02 3.00000E-03
1.40000E+01 2.49274E-04 1.87600E+02 3.00000E-03
1.50000E+01 2.18888E-04 1.64225E+02 3.00000E-03
1.60000E+01 1.92207E-04 1.43699E+02 3.00000E-03
1.70000E+01 1.68778E-04 1.25675E+02 3.00000E-03
1.80000E+01 1.48205E-04 1.09848E+02 3.00000E-03
1.90000E+01 1.30140E-04 9.59504E+01 3.00000E-03
2.00000E+01 1.14277E-04 8.37467E+01 3.00000E-03
2.10000E+01 1.00348E-04 7.30305E+01 3.00000E-03
2.20000E+01 8.81167E-05 6.36206E+01 3.00000E-03
2.30000E+01 7.73764E-05 5.53575E+01 3.00000E-03
2.40000E+01 6.79453E-05 4.81017E+01 3.00000E-03
2.50000E+01 5.96638E-05 4.17302E+01 3.00000E-03
2.75000E+01 4.23757E-05 2.90365E+01 3.00000E-03
3.00000E+01 2.94136E-05 2.01613E+01 3.00000E-03
3.25000E+01 2.04188E-05 1.40006E+01 3.00000E-03
3.50000E+01 1.41764E-05 9.72357E+00 3.00000E-03
3.75000E+01 9.84353E-06 6.75397E+00 3.00000E-03
4.00000E+01 6.83577E-06 4.69187E+00 3.00000E-03
4.25000E+01 4.74760E-06 3.25979E+00 3.00000E-03
4.50000E+01 3.29770E-06 2.26512E+00 3.00000E-03
4.75000E+01 2.29086E-06 1.57418E+00 3.00000E-03
5.00000E+01 1.59160E-06 1.09417E+00 3.00000E-03
5.50000E+01 7.68518E-07 5.28910E-01 3.00000E-03
6.00000E+01 3.71250E-07 2.55917E-01 3.00000E-03
6.50000E+01 1.79419E-07 1.24016E-01 3.00000E-03
7.00000E+01 8.67472E-08 6.02584E-02 3.00000E-03
7.50000E+01 4.19591E-08 2.94265E-02 3.00000E-03
8.00000E+01 2.03038E-08 1.45106E-02 3.00000E-03
8.50000E+01 9.82890E-09 7.29159E-03 3.00000E-03
9.00000E+01 4.75999E-09 3.79630E-03 3.00000E-03
9.50000E+01 2.30610E-09 2.10328E-03 3.00000E-03
1.00000E+02 1.00000E-09 1.28292E-03 3.00000E-03
1.05000E+02 9.52381E-10 7.82920E-04 3.00000E-03
1.10000E+02 9.09091E-10 2.82920E-04 3.00000E-03
1.15000E+02 8.69565E-10 1.00000E-05 3.00000E-03
1.20000E+02 8.33333E-10 0.00000E+00 3.00000E-03
