# Atmospheric Model 51052105
# Col. #1          #2           #3            #4
# Alt [km]    rho [g/cm^3] thick [g/cm^2]    n-1
0.00000E+00 1.15049E-03 1.05121E+03 3.00000E-03
1.00000E+00 1.04602E-03 9.41464E+02 3.00000E-03
2.00000E+00 9.51038E-04 8.41686E+02 3.00000E-03
3.00000E+00 8.64679E-04 7.50969E+02 3.00000E-03
4.00000E+00 7.86162E-04 6.68489E+02 3.00000E-03
5.00000E+00 7.10012E-04 5.93712E+02 3.00000E-03
6.00000E+00 6.40592E-04 5.26241E+02 3.00000E-03
7.00000E+00 5.77965E-04 4.65367E+02 3.00000E-03
8.00000E+00 5.21465E-04 4.10444E+02 3.00000E-03
9.00000E+00 4.70493E-04 3.60890E+02 3.00000E-03
1.00000E+01 4.21194E-04 3.16225E+02 3.00000E-03
1.10000E+01 3.69237E-04 2.76760E+02 3.00000E-03
1.20000E+01 3.23690E-04 2.42164E+02 3.00000E-03
1.30000E+01 2.83762E-04 2.11835E+02 3.00000E-03
1.40000E+01 2.48760E-04 1.85247E+02 3.00000E-03
1.50000E+01 2.18076E-04 1.61939E+02 3.00000E-03
1.60000E+01 1.91177E-04 1.41506E+02 3.00000E-03
1.70000E+01 1.67596E-04 1.23593E+02 3.00000E-03
1.80000E+01 1.46924E-04 1.07890E+02 3.00000E-03
1.90000E+01 1.28802E-04 9.41236E+01 3.00000E-03
2.00000E+01 1.12915E-04 8.20551E+01 3.00000E-03
2.10000E+01 9.89885E-05 7.14752E+01 3.00000E-03
2.20000E+01 8.67795E-05 6.22002E+01 3.00000E-03
2.30000E+01 7.60765E-05 5.40691E+01 3.00000E-03
2.40000E+01 6.66937E-05 4.69409E+01 3.00000E-03
2.50000E+01 5.84682E-05 4.06919E+01 3.00000E-03
2.75000E+01 4.14769E-05 2.82656E+01 3.00000E-03
3.00000E+01 2.87324E-05 1.95867E+01 3.00000E-03
3.25000E+01 1.99061E-05 1.35743E+01 3.00000E-03
3.50000E+01 1.37928E-05 9.40861E+00 3.00000E-03
3.75000E+01 9.55799E-06 6.52208E+00 3.00000E-03
4.00000E+01 6.62416E-06 4.52169E+00 3.00000E-03
4.25000E+01 4.59140E-06 3.13524E+00 3.00000E-03
4.50000E+01 3.18279E-06 2.17421E+00 3.00000E-03
4.75000E+01 2.20658E-06 1.50798E+00 3.00000E-03
5.00000E+01 1.52996E-06 1.04606E+00 3.00000E-03
5.50000E+01 7.35774E-07 5.03663E-01 3.00000E-03
6.00000E+01 3.53998E-07 2.42765E-01 3.00000E-03
6.50000E+01 1.70391E-07 1.17217E-01 3.00000E-03
7.00000E+01 8.20505E-08 5.67747E-02 3.00000E-03
7.50000E+01 3.95276E-08 2.76638E-02 3.00000E-03
8.00000E+01 1.90503E-08 1.36372E-02 3.00000E-03
8.50000E+01 9.18514E-09 6.87576E-03 3.00000E-03
9.00000E+01 4.43045E-09 3.61515E-03 3.00000E-03
9.50000E+01 2.13789E-09 2.04211E-03 3.00000E-03
1.00000E+02 1.00000E-09 1.28292E-03 3.00000E-03
1.05000E+02 9.52381E-10 7.82920E-04 3.00000E-03
1.10000E+02 9.09091E-10 2.82920E-04 3.00000E-03
1.15000E+02 8.69565E-10 1.00000E-05 3.00000E-03
1.20000E+02 8.33333E-10 0.00000E+00 3.00000E-03
