# Atmospheric Model 57032104
# Col. #1          #2           #3            #4
# Alt [km]    rho [g/cm^3] thick [g/cm^2]    n-1
0.00000E+00 1.16263E-03 1.05758E+03 3.00000E-03
1.00000E+00 1.05735E-03 9.46665E+02 3.00000E-03
2.00000E+00 9.61618E-04 8.45792E+02 3.00000E-03
3.00000E+00 8.74569E-04 7.54052E+02 3.00000E-03
4.00000E+00 7.93264E-04 6.70641E+02 3.00000E-03
5.00000E+00 7.13091E-04 5.95394E+02 3.00000E-03
6.00000E+00 6.41023E-04 5.27752E+02 3.00000E-03
7.00000E+00 5.76239E-04 4.66947E+02 3.00000E-03
8.00000E+00 5.18004E-04 4.12286E+02 3.00000E-03
9.00000E+00 4.65655E-04 3.63150E+02 3.00000E-03
1.00000E+01 4.16130E-04 3.19013E+02 3.00000E-03
1.10000E+01 3.65977E-04 2.79961E+02 3.00000E-03
1.20000E+01 3.21868E-04 2.45616E+02 3.00000E-03
1.30000E+01 2.83076E-04 2.15410E+02 3.00000E-03
1.40000E+01 2.48959E-04 1.88845E+02 3.00000E-03
1.50000E+01 2.18954E-04 1.65482E+02 3.00000E-03
1.60000E+01 1.92566E-04 1.44934E+02 3.00000E-03
1.70000E+01 1.69357E-04 1.26863E+02 3.00000E-03
1.80000E+01 1.48947E-04 1.10969E+02 3.00000E-03
1.90000E+01 1.30996E-04 9.69913E+01 3.00000E-03
2.00000E+01 1.15208E-04 8.46980E+01 3.00000E-03
2.10000E+01 1.01324E-04 7.38863E+01 3.00000E-03
2.20000E+01 8.91124E-05 6.43775E+01 3.00000E-03
2.30000E+01 7.83729E-05 5.60148E+01 3.00000E-03
2.40000E+01 6.89277E-05 4.86598E+01 3.00000E-03
2.50000E+01 6.06208E-05 4.21913E+01 3.00000E-03
2.75000E+01 4.31374E-05 2.92722E+01 3.00000E-03
3.00000E+01 2.98339E-05 2.02528E+01 3.00000E-03
3.25000E+01 2.06362E-05 1.40146E+01 3.00000E-03
3.50000E+01 1.42762E-05 9.69933E+00 3.00000E-03
3.75000E+01 9.87776E-06 6.71380E+00 3.00000E-03
4.00000E+01 6.83545E-06 4.64795E+00 3.00000E-03
4.25000E+01 4.73084E-06 3.21828E+00 3.00000E-03
4.50000E+01 3.27470E-06 2.22874E+00 3.00000E-03
4.75000E+01 2.26708E-06 1.54373E+00 3.00000E-03
5.00000E+01 1.56973E-06 1.06946E+00 3.00000E-03
5.50000E+01 7.52873E-07 5.13622E-01 3.00000E-03
6.00000E+01 3.61296E-07 2.46964E-01 3.00000E-03
6.50000E+01 1.73479E-07 1.18967E-01 3.00000E-03
7.00000E+01 8.33427E-08 5.74934E-02 3.00000E-03
7.50000E+01 4.00613E-08 2.79531E-02 3.00000E-03
8.00000E+01 1.92671E-08 1.37502E-02 3.00000E-03
8.50000E+01 9.27125E-09 6.91791E-03 3.00000E-03
9.00000E+01 4.46363E-09 3.62947E-03 3.00000E-03
9.50000E+01 2.15012E-09 2.04590E-03 3.00000E-03
1.00000E+02 1.00000E-09 1.28292E-03 3.00000E-03
1.05000E+02 9.52381E-10 7.82920E-04 3.00000E-03
1.10000E+02 9.09091E-10 2.82920E-04 3.00000E-03
1.15000E+02 8.69565E-10 1.00000E-05 3.00000E-03
1.20000E+02 8.33333E-10 0.00000E+00 3.00000E-03
