# Atmospheric Model 57032107
# Col. #1          #2           #3            #4
# Alt [km]    rho [g/cm^3] thick [g/cm^2]    n-1
0.00000E+00 1.17480E-03 1.05980E+03 3.00000E-03
1.00000E+00 1.06613E-03 9.47837E+02 3.00000E-03
2.00000E+00 9.67525E-04 8.46235E+02 3.00000E-03
3.00000E+00 8.78053E-04 7.54028E+02 3.00000E-03
4.00000E+00 7.95267E-04 6.70365E+02 3.00000E-03
5.00000E+00 7.15022E-04 5.94922E+02 3.00000E-03
6.00000E+00 6.42875E-04 5.27091E+02 3.00000E-03
7.00000E+00 5.78009E-04 4.66104E+02 3.00000E-03
8.00000E+00 5.19689E-04 4.11271E+02 3.00000E-03
9.00000E+00 4.67254E-04 3.61970E+02 3.00000E-03
1.00000E+01 4.17502E-04 3.17679E+02 3.00000E-03
1.10000E+01 3.66708E-04 2.78523E+02 3.00000E-03
1.20000E+01 3.22094E-04 2.44132E+02 3.00000E-03
1.30000E+01 2.82908E-04 2.13924E+02 3.00000E-03
1.40000E+01 2.48489E-04 1.87391E+02 3.00000E-03
1.50000E+01 2.18258E-04 1.64087E+02 3.00000E-03
1.60000E+01 1.91705E-04 1.43617E+02 3.00000E-03
1.70000E+01 1.68383E-04 1.25638E+02 3.00000E-03
1.80000E+01 1.47898E-04 1.09846E+02 3.00000E-03
1.90000E+01 1.29905E-04 9.59752E+01 3.00000E-03
2.00000E+01 1.14102E-04 8.37919E+01 3.00000E-03
2.10000E+01 1.00221E-04 7.30908E+01 3.00000E-03
2.20000E+01 8.80283E-05 6.36915E+01 3.00000E-03
2.30000E+01 7.73193E-05 5.54357E+01 3.00000E-03
2.40000E+01 6.79132E-05 4.81843E+01 3.00000E-03
2.50000E+01 5.96513E-05 4.18150E+01 3.00000E-03
2.75000E+01 4.25362E-05 2.91045E+01 3.00000E-03
3.00000E+01 2.95108E-05 2.01977E+01 3.00000E-03
3.25000E+01 2.04760E-05 1.40181E+01 3.00000E-03
3.50000E+01 1.42087E-05 9.73014E+00 3.00000E-03
3.75000E+01 9.86065E-06 6.75451E+00 3.00000E-03
4.00000E+01 6.84382E-06 4.68937E+00 3.00000E-03
4.25000E+01 4.75044E-06 3.25599E+00 3.00000E-03
4.50000E+01 3.29769E-06 2.26100E+00 3.00000E-03
4.75000E+01 2.28943E-06 1.57027E+00 3.00000E-03
5.00000E+01 1.58960E-06 1.09070E+00 3.00000E-03
5.50000E+01 7.66522E-07 5.26480E-01 3.00000E-03
6.00000E+01 3.69762E-07 2.54364E-01 3.00000E-03
6.50000E+01 1.78433E-07 1.23077E-01 3.00000E-03
7.00000E+01 8.61352E-08 5.97134E-02 3.00000E-03
7.50000E+01 4.15946E-08 2.91211E-02 3.00000E-03
8.00000E+01 2.00928E-08 1.43458E-02 3.00000E-03
8.50000E+01 9.70934E-09 7.20738E-03 3.00000E-03
9.00000E+01 4.69333E-09 3.75741E-03 3.00000E-03
9.50000E+01 2.26941E-09 2.08952E-03 3.00000E-03
1.00000E+02 1.00000E-09 1.28292E-03 3.00000E-03
1.05000E+02 9.52381E-10 7.82920E-04 3.00000E-03
1.10000E+02 9.09091E-10 2.82920E-04 3.00000E-03
1.15000E+02 8.69565E-10 1.00000E-05 3.00000E-03
1.20000E+02 8.33333E-10 0.00000E+00 3.00000E-03
