# Atmospheric Model 57032106
# Col. #1          #2           #3            #4
# Alt [km]    rho [g/cm^3] thick [g/cm^2]    n-1
0.00000E+00 1.17126E-03 1.05869E+03 3.00000E-03
1.00000E+00 1.06350E-03 9.47035E+02 3.00000E-03
2.00000E+00 9.65659E-04 8.45657E+02 3.00000E-03
3.00000E+00 8.76836E-04 7.53603E+02 3.00000E-03
4.00000E+00 7.94504E-04 6.70035E+02 3.00000E-03
5.00000E+00 7.14447E-04 5.94659E+02 3.00000E-03
6.00000E+00 6.42458E-04 5.26877E+02 3.00000E-03
7.00000E+00 5.77724E-04 4.65925E+02 3.00000E-03
8.00000E+00 5.19514E-04 4.11115E+02 3.00000E-03
9.00000E+00 4.67169E-04 3.61827E+02 3.00000E-03
1.00000E+01 4.17444E-04 3.17542E+02 3.00000E-03
1.10000E+01 3.66653E-04 2.78392E+02 3.00000E-03
1.20000E+01 3.22042E-04 2.44005E+02 3.00000E-03
1.30000E+01 2.82859E-04 2.13802E+02 3.00000E-03
1.40000E+01 2.48444E-04 1.87274E+02 3.00000E-03
1.50000E+01 2.18216E-04 1.63974E+02 3.00000E-03
1.60000E+01 1.91666E-04 1.43509E+02 3.00000E-03
1.70000E+01 1.68346E-04 1.25533E+02 3.00000E-03
1.80000E+01 1.47864E-04 1.09745E+02 3.00000E-03
1.90000E+01 1.29874E-04 9.58775E+01 3.00000E-03
2.00000E+01 1.14073E-04 8.36972E+01 3.00000E-03
2.10000E+01 1.00194E-04 7.29988E+01 3.00000E-03
2.20000E+01 8.80045E-05 6.36021E+01 3.00000E-03
2.30000E+01 7.72976E-05 5.53485E+01 3.00000E-03
2.40000E+01 6.78934E-05 4.80992E+01 3.00000E-03
2.50000E+01 5.96335E-05 4.17317E+01 3.00000E-03
2.75000E+01 4.24773E-05 2.90291E+01 3.00000E-03
3.00000E+01 2.94557E-05 2.01367E+01 3.00000E-03
3.25000E+01 2.04283E-05 1.39699E+01 3.00000E-03
3.50000E+01 1.41693E-05 9.69286E+00 3.00000E-03
3.75000E+01 9.82907E-06 6.72610E+00 3.00000E-03
4.00000E+01 6.81912E-06 4.66797E+00 3.00000E-03
4.25000E+01 4.73144E-06 3.24003E+00 3.00000E-03
4.50000E+01 3.28329E-06 2.24919E+00 3.00000E-03
4.75000E+01 2.27863E-06 1.56159E+00 3.00000E-03
5.00000E+01 1.58156E-06 1.08436E+00 3.00000E-03
5.50000E+01 7.62176E-07 5.23153E-01 3.00000E-03
6.00000E+01 3.67463E-07 2.52646E-01 3.00000E-03
6.50000E+01 1.77239E-07 1.22204E-01 3.00000E-03
7.00000E+01 8.55234E-08 5.92756E-02 3.00000E-03
7.50000E+01 4.12848E-08 2.89053E-02 3.00000E-03
8.00000E+01 1.99375E-08 1.42420E-02 3.00000E-03
8.50000E+01 9.63216E-09 7.15944E-03 3.00000E-03
9.00000E+01 4.65527E-09 3.73716E-03 3.00000E-03
9.50000E+01 2.25077E-09 2.08288E-03 3.00000E-03
1.00000E+02 1.00000E-09 1.28292E-03 3.00000E-03
1.05000E+02 9.52381E-10 7.82920E-04 3.00000E-03
1.10000E+02 9.09091E-10 2.82920E-04 3.00000E-03
1.15000E+02 8.69565E-10 1.00000E-05 3.00000E-03
1.20000E+02 8.33333E-10 0.00000E+00 3.00000E-03
