# Atmospheric Model 5603202102
# Col. #1          #2           #3            #4
# Alt [km]    rho [g/cm^3] thick [g/cm^2]    n-1
0.00000E+00 1.19047E-03 1.05112E+03 3.00000E-03
1.00000E+00 1.07357E-03 9.38015E+02 3.00000E-03
2.00000E+00 9.68183E-04 8.36018E+02 3.00000E-03
3.00000E+00 8.73168E-04 7.44033E+02 3.00000E-03
4.00000E+00 7.87763E-04 6.61071E+02 3.00000E-03
5.00000E+00 7.11668E-04 5.86164E+02 3.00000E-03
6.00000E+00 6.42931E-04 5.18492E+02 3.00000E-03
7.00000E+00 5.80839E-04 4.57356E+02 3.00000E-03
8.00000E+00 5.24751E-04 4.02124E+02 3.00000E-03
9.00000E+00 4.74084E-04 3.52225E+02 3.00000E-03
1.00000E+01 4.22723E-04 3.07254E+02 3.00000E-03
1.10000E+01 3.68667E-04 2.67746E+02 3.00000E-03
1.20000E+01 3.21526E-04 2.33290E+02 3.00000E-03
1.30000E+01 2.80414E-04 2.03240E+02 3.00000E-03
1.40000E+01 2.44562E-04 1.77032E+02 3.00000E-03
1.50000E+01 2.13294E-04 1.54175E+02 3.00000E-03
1.60000E+01 1.86026E-04 1.34240E+02 3.00000E-03
1.70000E+01 1.62245E-04 1.16854E+02 3.00000E-03
1.80000E+01 1.41505E-04 1.01690E+02 3.00000E-03
1.90000E+01 1.23417E-04 8.84646E+01 3.00000E-03
2.00000E+01 1.07642E-04 7.69296E+01 3.00000E-03
2.10000E+01 9.38839E-05 6.68690E+01 3.00000E-03
2.20000E+01 8.18850E-05 5.80942E+01 3.00000E-03
2.30000E+01 7.14201E-05 5.04409E+01 3.00000E-03
2.40000E+01 6.22931E-05 4.37657E+01 3.00000E-03
2.50000E+01 5.43328E-05 3.79434E+01 3.00000E-03
2.75000E+01 3.83264E-05 2.64508E+01 3.00000E-03
3.00000E+01 2.66748E-05 1.84135E+01 3.00000E-03
3.25000E+01 1.85669E-05 1.28193E+01 3.00000E-03
3.50000E+01 1.29243E-05 8.92546E+00 3.00000E-03
3.75000E+01 8.99724E-06 6.21485E+00 3.00000E-03
4.00000E+01 6.26387E-06 4.32780E+00 3.00000E-03
4.25000E+01 4.36122E-06 3.01399E+00 3.00000E-03
4.50000E+01 3.03672E-06 2.09921E+00 3.00000E-03
4.75000E+01 2.11462E-06 1.46224E+00 3.00000E-03
5.00000E+01 1.47263E-06 1.01866E+00 3.00000E-03
5.50000E+01 7.14337E-07 4.94595E-01 3.00000E-03
6.00000E+01 3.46605E-07 2.40350E-01 3.00000E-03
6.50000E+01 1.68224E-07 1.16973E-01 3.00000E-03
7.00000E+01 8.16688E-08 5.70845E-02 3.00000E-03
7.50000E+01 3.96590E-08 2.80068E-02 3.00000E-03
8.00000E+01 1.92638E-08 1.38848E-02 3.00000E-03
8.50000E+01 9.35952E-09 7.02441E-03 3.00000E-03
9.00000E+01 4.54859E-09 3.69085E-03 3.00000E-03
9.50000E+01 2.21110E-09 2.07062E-03 3.00000E-03
1.00000E+02 1.00000E-09 1.28292E-03 3.00000E-03
1.05000E+02 9.52381E-10 7.82920E-04 3.00000E-03
1.10000E+02 9.09091E-10 2.82920E-04 3.00000E-03
1.15000E+02 8.69565E-10 1.00000E-05 3.00000E-03
1.20000E+02 8.33333E-10 0.00000E+00 3.00000E-03
