# Atmospheric Model 5603202105
# Col. #1          #2           #3            #4
# Alt [km]    rho [g/cm^3] thick [g/cm^2]    n-1
0.00000E+00 1.19958E-03 1.05205E+03 3.00000E-03
1.00000E+00 1.08544E-03 9.37893E+02 3.00000E-03
2.00000E+00 9.82180E-04 8.34598E+02 3.00000E-03
3.00000E+00 8.88754E-04 7.41129E+02 3.00000E-03
4.00000E+00 8.03472E-04 6.56560E+02 3.00000E-03
5.00000E+00 7.24459E-04 5.80232E+02 3.00000E-03
6.00000E+00 6.53221E-04 5.11410E+02 3.00000E-03
7.00000E+00 5.88991E-04 4.49354E+02 3.00000E-03
8.00000E+00 5.31080E-04 3.93401E+02 3.00000E-03
9.00000E+00 4.78866E-04 3.42948E+02 3.00000E-03
1.00000E+01 4.23225E-04 2.97689E+02 3.00000E-03
1.10000E+01 3.67184E-04 2.58235E+02 3.00000E-03
1.20000E+01 3.18566E-04 2.24005E+02 3.00000E-03
1.30000E+01 2.76387E-04 1.94307E+02 3.00000E-03
1.40000E+01 2.39794E-04 1.68541E+02 3.00000E-03
1.50000E+01 2.08047E-04 1.46187E+02 3.00000E-03
1.60000E+01 1.80505E-04 1.26792E+02 3.00000E-03
1.70000E+01 1.56610E-04 1.09964E+02 3.00000E-03
1.80000E+01 1.35879E-04 9.53644E+01 3.00000E-03
1.90000E+01 1.17893E-04 8.26971E+01 3.00000E-03
2.00000E+01 1.02288E-04 7.17066E+01 3.00000E-03
2.10000E+01 8.87495E-05 6.21707E+01 3.00000E-03
2.20000E+01 7.70034E-05 5.38970E+01 3.00000E-03
2.30000E+01 6.68124E-05 4.67182E+01 3.00000E-03
2.40000E+01 5.79705E-05 4.04896E+01 3.00000E-03
2.50000E+01 5.02991E-05 3.50851E+01 3.00000E-03
2.75000E+01 3.52140E-05 2.45023E+01 3.00000E-03
3.00000E+01 2.45831E-05 1.71071E+01 3.00000E-03
3.25000E+01 1.71623E-05 1.19444E+01 3.00000E-03
3.50000E+01 1.19820E-05 8.34008E+00 3.00000E-03
3.75000E+01 8.36560E-06 5.82365E+00 3.00000E-03
4.00000E+01 5.84093E-06 4.06669E+00 3.00000E-03
4.25000E+01 4.07833E-06 2.83995E+00 3.00000E-03
4.50000E+01 2.84773E-06 1.98338E+00 3.00000E-03
4.75000E+01 1.98853E-06 1.38527E+00 3.00000E-03
5.00000E+01 1.38861E-06 9.67604E-01 3.00000E-03
5.50000E+01 6.77209E-07 4.72260E-01 3.00000E-03
6.00000E+01 3.30314E-07 2.30671E-01 3.00000E-03
6.50000E+01 1.61136E-07 1.12826E-01 3.00000E-03
7.00000E+01 7.86177E-08 5.53350E-02 3.00000E-03
7.50000E+01 3.83626E-08 2.72835E-02 3.00000E-03
8.00000E+01 1.87221E-08 1.35946E-02 3.00000E-03
8.50000E+01 9.13823E-09 6.91356E-03 3.00000E-03
9.00000E+01 4.46096E-09 3.65237E-03 3.00000E-03
9.50000E+01 2.17798E-09 2.06027E-03 3.00000E-03
1.00000E+02 1.00000E-09 1.28292E-03 3.00000E-03
1.05000E+02 9.52381E-10 7.82920E-04 3.00000E-03
1.10000E+02 9.09091E-10 2.82920E-04 3.00000E-03
1.15000E+02 8.69565E-10 1.00000E-05 3.00000E-03
1.20000E+02 8.33333E-10 0.00000E+00 3.00000E-03
