# Atmospheric Model 56032106
# Col. #1          #2           #3            #4
# Alt [km]    rho [g/cm^3] thick [g/cm^2]    n-1
0.00000E+00 1.21099E-03 1.05228E+03 3.00000E-03
1.00000E+00 1.09370E-03 9.37146E+02 3.00000E-03
2.00000E+00 9.87780E-04 8.33162E+02 3.00000E-03
3.00000E+00 8.92130E-04 7.39248E+02 3.00000E-03
4.00000E+00 8.05293E-04 6.54435E+02 3.00000E-03
5.00000E+00 7.25985E-04 5.77939E+02 3.00000E-03
6.00000E+00 6.54495E-04 5.08977E+02 3.00000E-03
7.00000E+00 5.90051E-04 4.46805E+02 3.00000E-03
8.00000E+00 5.31959E-04 3.90755E+02 3.00000E-03
9.00000E+00 4.79591E-04 3.40223E+02 3.00000E-03
1.00000E+01 4.22914E-04 2.94945E+02 3.00000E-03
1.10000E+01 3.66402E-04 2.55547E+02 3.00000E-03
1.20000E+01 3.17445E-04 2.21413E+02 3.00000E-03
1.30000E+01 2.75033E-04 1.91840E+02 3.00000E-03
1.40000E+01 2.38290E-04 1.66218E+02 3.00000E-03
1.50000E+01 2.06459E-04 1.44019E+02 3.00000E-03
1.60000E+01 1.78881E-04 1.24785E+02 3.00000E-03
1.70000E+01 1.54990E-04 1.08120E+02 3.00000E-03
1.80000E+01 1.34291E-04 9.36804E+01 3.00000E-03
1.90000E+01 1.16358E-04 8.11693E+01 3.00000E-03
2.00000E+01 1.00821E-04 7.03290E+01 3.00000E-03
2.10000E+01 8.73594E-05 6.09360E+01 3.00000E-03
2.20000E+01 7.56964E-05 5.27972E+01 3.00000E-03
2.30000E+01 6.55912E-05 4.57449E+01 3.00000E-03
2.40000E+01 5.68358E-05 3.96340E+01 3.00000E-03
2.50000E+01 4.92497E-05 3.43388E+01 3.00000E-03
2.75000E+01 3.44158E-05 2.39903E+01 3.00000E-03
3.00000E+01 2.40418E-05 1.67605E+01 3.00000E-03
3.25000E+01 1.67954E-05 1.17099E+01 3.00000E-03
3.50000E+01 1.17334E-05 8.18154E+00 3.00000E-03
3.75000E+01 8.19738E-06 5.71656E+00 3.00000E-03
4.00000E+01 5.72714E-06 3.99441E+00 3.00000E-03
4.25000E+01 4.00143E-06 2.79121E+00 3.00000E-03
4.50000E+01 2.79579E-06 1.95055E+00 3.00000E-03
4.75000E+01 1.95348E-06 1.36317E+00 3.00000E-03
5.00000E+01 1.36498E-06 9.52747E-01 3.00000E-03
5.50000E+01 6.66499E-07 4.65569E-01 3.00000E-03
6.00000E+01 3.25481E-07 2.27674E-01 3.00000E-03
6.50000E+01 1.58966E-07 1.11494E-01 3.00000E-03
7.00000E+01 7.76489E-08 5.47477E-02 3.00000E-03
7.50000E+01 3.79330E-08 2.70280E-02 3.00000E-03
8.00000E+01 1.85332E-08 1.34856E-02 3.00000E-03
8.50000E+01 9.05594E-09 6.86883E-03 3.00000E-03
9.00000E+01 4.42555E-09 3.63546E-03 3.00000E-03
9.50000E+01 2.16297E-09 2.05527E-03 3.00000E-03
1.00000E+02 1.00000E-09 1.28292E-03 3.00000E-03
1.05000E+02 9.52381E-10 7.82920E-04 3.00000E-03
1.10000E+02 9.09091E-10 2.82920E-04 3.00000E-03
1.15000E+02 8.69565E-10 1.00000E-05 3.00000E-03
1.20000E+02 8.33333E-10 0.00000E+00 3.00000E-03
