# Atmospheric Model 58042101
# Col. #1          #2           #3            #4
# Alt [km]    rho [g/cm^3] thick [g/cm^2]    n-1
0.00000E+00 1.16307E-03 1.05954E+03 3.00000E-03
1.00000E+00 1.05867E-03 9.48533E+02 3.00000E-03
2.00000E+00 9.63642E-04 8.47492E+02 3.00000E-03
3.00000E+00 8.77145E-04 7.55521E+02 3.00000E-03
4.00000E+00 7.96426E-04 6.71825E+02 3.00000E-03
5.00000E+00 7.15953E-04 5.96277E+02 3.00000E-03
6.00000E+00 6.43612E-04 5.28363E+02 3.00000E-03
7.00000E+00 5.78581E-04 4.67311E+02 3.00000E-03
8.00000E+00 5.20121E-04 4.12428E+02 3.00000E-03
9.00000E+00 4.67568E-04 3.63090E+02 3.00000E-03
1.00000E+01 4.17837E-04 3.18770E+02 3.00000E-03
1.10000E+01 3.67121E-04 2.79577E+02 3.00000E-03
1.20000E+01 3.22561E-04 2.45141E+02 3.00000E-03
1.30000E+01 2.83410E-04 2.14884E+02 3.00000E-03
1.40000E+01 2.49011E-04 1.88300E+02 3.00000E-03
1.50000E+01 2.18787E-04 1.64943E+02 3.00000E-03
1.60000E+01 1.92232E-04 1.44421E+02 3.00000E-03
1.70000E+01 1.68900E-04 1.26389E+02 3.00000E-03
1.80000E+01 1.48400E-04 1.10546E+02 3.00000E-03
1.90000E+01 1.30388E-04 9.66264E+01 3.00000E-03
2.00000E+01 1.14563E-04 8.43959E+01 3.00000E-03
2.10000E+01 1.00658E-04 7.36499E+01 3.00000E-03
2.20000E+01 8.84407E-05 6.42081E+01 3.00000E-03
2.30000E+01 7.77065E-05 5.59123E+01 3.00000E-03
2.40000E+01 6.82752E-05 4.86234E+01 3.00000E-03
2.50000E+01 5.99886E-05 4.22191E+01 3.00000E-03
2.75000E+01 4.26654E-05 2.94493E+01 3.00000E-03
3.00000E+01 2.96943E-05 2.05022E+01 3.00000E-03
3.25000E+01 2.06689E-05 1.42748E+01 3.00000E-03
3.50000E+01 1.43882E-05 9.94000E+00 3.00000E-03
3.75000E+01 1.00171E-05 6.92227E+00 3.00000E-03
4.00000E+01 6.97459E-06 4.82123E+00 3.00000E-03
4.25000E+01 4.85670E-06 3.35827E+00 3.00000E-03
4.50000E+01 3.38226E-06 2.33949E+00 3.00000E-03
4.75000E+01 2.35568E-06 1.62997E+00 3.00000E-03
5.00000E+01 1.64085E-06 1.13579E+00 3.00000E-03
5.50000E+01 7.96335E-07 5.51730E-01 3.00000E-03
6.00000E+01 3.86623E-07 2.68228E-01 3.00000E-03
6.50000E+01 1.87776E-07 1.30565E-01 3.00000E-03
7.00000E+01 9.12322E-08 6.36937E-02 3.00000E-03
7.50000E+01 4.43413E-08 3.11988E-02 3.00000E-03
8.00000E+01 2.15585E-08 1.54030E-02 3.00000E-03
8.50000E+01 1.04851E-08 7.72201E-03 3.00000E-03
9.00000E+01 5.10116E-09 3.98579E-03 3.00000E-03
9.50000E+01 2.48258E-09 2.16780E-03 3.00000E-03
1.00000E+02 1.00000E-09 1.28292E-03 3.00000E-03
1.05000E+02 9.52381E-10 7.82920E-04 3.00000E-03
1.10000E+02 9.09091E-10 2.82920E-04 3.00000E-03
1.15000E+02 8.69565E-10 1.00000E-05 3.00000E-03
1.20000E+02 8.33333E-10 0.00000E+00 3.00000E-03
