# Atmospheric Model 57042107
# Col. #1          #2           #3            #4
# Alt [km]    rho [g/cm^3] thick [g/cm^2]    n-1
0.00000E+00 1.17166E-03 1.06092E+03 3.00000E-03
1.00000E+00 1.06541E-03 9.49154E+02 3.00000E-03
2.00000E+00 9.68793E-04 8.47521E+02 3.00000E-03
3.00000E+00 8.80941E-04 7.55104E+02 3.00000E-03
4.00000E+00 7.98918E-04 6.71090E+02 3.00000E-03
5.00000E+00 7.17322E-04 5.95351E+02 3.00000E-03
6.00000E+00 6.44060E-04 5.27348E+02 3.00000E-03
7.00000E+00 5.78282E-04 4.66290E+02 3.00000E-03
8.00000E+00 5.19222E-04 4.11467E+02 3.00000E-03
9.00000E+00 4.66195E-04 3.62244E+02 3.00000E-03
1.00000E+01 4.16193E-04 3.18081E+02 3.00000E-03
1.10000E+01 3.65813E-04 2.79035E+02 3.00000E-03
1.20000E+01 3.21532E-04 2.44715E+02 3.00000E-03
1.30000E+01 2.82612E-04 2.14550E+02 3.00000E-03
1.40000E+01 2.48403E-04 1.88036E+02 3.00000E-03
1.50000E+01 2.18335E-04 1.64731E+02 3.00000E-03
1.60000E+01 1.91907E-04 1.44247E+02 3.00000E-03
1.70000E+01 1.68678E-04 1.26243E+02 3.00000E-03
1.80000E+01 1.48261E-04 1.10418E+02 3.00000E-03
1.90000E+01 1.30315E-04 9.65085E+01 3.00000E-03
2.00000E+01 1.14542E-04 8.42826E+01 3.00000E-03
2.10000E+01 1.00678E-04 7.35364E+01 3.00000E-03
2.20000E+01 8.84922E-05 6.40910E+01 3.00000E-03
2.30000E+01 7.77814E-05 5.57889E+01 3.00000E-03
2.40000E+01 6.83671E-05 4.84916E+01 3.00000E-03
2.50000E+01 6.00923E-05 4.20775E+01 3.00000E-03
2.75000E+01 4.28754E-05 2.92652E+01 3.00000E-03
3.00000E+01 2.97181E-05 2.02914E+01 3.00000E-03
3.25000E+01 2.06009E-05 1.40710E+01 3.00000E-03
3.50000E+01 1.42825E-05 9.75873E+00 3.00000E-03
3.75000E+01 9.90323E-06 6.76888E+00 3.00000E-03
4.00000E+01 6.86753E-06 4.69565E+00 3.00000E-03
4.25000E+01 4.76296E-06 3.25786E+00 3.00000E-03
4.50000E+01 3.30373E-06 2.26063E+00 3.00000E-03
4.75000E+01 2.29183E-06 1.56889E+00 3.00000E-03
5.00000E+01 1.59006E-06 1.08899E+00 3.00000E-03
5.50000E+01 7.65639E-07 5.24967E-01 3.00000E-03
6.00000E+01 3.68837E-07 2.53328E-01 3.00000E-03
6.50000E+01 1.77763E-07 1.22443E-01 3.00000E-03
7.00000E+01 8.57117E-08 5.93500E-02 3.00000E-03
7.50000E+01 4.13456E-08 2.89226E-02 3.00000E-03
8.00000E+01 1.99529E-08 1.42422E-02 3.00000E-03
8.50000E+01 9.63313E-09 7.15633E-03 3.00000E-03
9.00000E+01 4.65274E-09 3.73468E-03 3.00000E-03
9.50000E+01 2.24817E-09 2.08175E-03 3.00000E-03
1.00000E+02 1.00000E-09 1.28292E-03 3.00000E-03
1.05000E+02 9.52381E-10 7.82920E-04 3.00000E-03
1.10000E+02 9.09091E-10 2.82920E-04 3.00000E-03
1.15000E+02 8.69565E-10 1.00000E-05 3.00000E-03
1.20000E+02 8.33333E-10 0.00000E+00 3.00000E-03
