# Atmospheric Model 57042106
# Col. #1          #2           #3            #4
# Alt [km]    rho [g/cm^3] thick [g/cm^2]    n-1
0.00000E+00 1.16613E-03 1.05880E+03 3.00000E-03
1.00000E+00 1.06071E-03 9.47543E+02 3.00000E-03
2.00000E+00 9.64828E-04 8.46341E+02 3.00000E-03
3.00000E+00 8.77613E-04 7.54288E+02 3.00000E-03
4.00000E+00 7.96241E-04 6.70578E+02 3.00000E-03
5.00000E+00 7.15644E-04 5.95055E+02 3.00000E-03
6.00000E+00 6.43205E-04 5.27177E+02 3.00000E-03
7.00000E+00 5.78100E-04 4.66170E+02 3.00000E-03
8.00000E+00 5.19585E-04 4.11338E+02 3.00000E-03
9.00000E+00 4.66993E-04 3.62056E+02 3.00000E-03
1.00000E+01 4.17138E-04 3.17797E+02 3.00000E-03
1.10000E+01 3.66445E-04 2.78673E+02 3.00000E-03
1.20000E+01 3.21912E-04 2.44303E+02 3.00000E-03
1.30000E+01 2.82791E-04 2.14110E+02 3.00000E-03
1.40000E+01 2.48425E-04 1.87586E+02 3.00000E-03
1.50000E+01 2.18235E-04 1.64286E+02 3.00000E-03
1.60000E+01 1.91714E-04 1.43817E+02 3.00000E-03
1.70000E+01 1.68416E-04 1.25836E+02 3.00000E-03
1.80000E+01 1.47950E-04 1.10040E+02 3.00000E-03
1.90000E+01 1.29970E-04 9.61630E+01 3.00000E-03
2.00000E+01 1.14176E-04 8.39727E+01 3.00000E-03
2.10000E+01 1.00301E-04 7.32639E+01 3.00000E-03
2.20000E+01 8.81124E-05 6.38563E+01 3.00000E-03
2.30000E+01 7.74049E-05 5.55920E+01 3.00000E-03
2.40000E+01 6.79986E-05 4.83320E+01 3.00000E-03
2.50000E+01 5.97355E-05 4.19542E+01 3.00000E-03
2.75000E+01 4.25751E-05 2.92276E+01 3.00000E-03
3.00000E+01 2.95710E-05 2.03080E+01 3.00000E-03
3.25000E+01 2.05417E-05 1.41123E+01 3.00000E-03
3.50000E+01 1.42714E-05 9.80820E+00 3.00000E-03
3.75000E+01 9.91639E-06 6.81771E+00 3.00000E-03
4.00000E+01 6.89125E-06 4.73967E+00 3.00000E-03
4.25000E+01 4.78959E-06 3.29547E+00 3.00000E-03
4.50000E+01 3.32932E-06 2.29166E+00 3.00000E-03
4.75000E+01 2.31455E-06 1.59385E+00 3.00000E-03
5.00000E+01 1.60928E-06 1.10871E+00 3.00000E-03
5.50000E+01 7.78262E-07 5.36778E-01 3.00000E-03
6.00000E+01 3.76555E-07 2.60131E-01 3.00000E-03
6.50000E+01 1.82278E-07 1.26250E-01 3.00000E-03
7.00000E+01 8.82756E-08 6.14297E-02 3.00000E-03
7.50000E+01 4.27701E-08 3.00314E-02 3.00000E-03
8.00000E+01 2.07314E-08 1.48158E-02 3.00000E-03
8.50000E+01 1.00531E-08 7.43922E-03 3.00000E-03
9.00000E+01 4.87698E-09 3.86149E-03 3.00000E-03
9.50000E+01 2.36687E-09 2.12554E-03 3.00000E-03
1.00000E+02 1.00000E-09 1.28292E-03 3.00000E-03
1.05000E+02 9.52381E-10 7.82920E-04 3.00000E-03
1.10000E+02 9.09091E-10 2.82920E-04 3.00000E-03
1.15000E+02 8.69565E-10 1.00000E-05 3.00000E-03
1.20000E+02 8.33333E-10 0.00000E+00 3.00000E-03
