# Atmospheric Model 4901202108
# Col. #1          #2           #3            #4
# Alt [km]    rho [g/cm^3] thick [g/cm^2]    n-1
0.00000E+00 1.21441E-03 1.04433E+03 3.00000E-03
1.00000E+00 1.09885E-03 9.28762E+02 3.00000E-03
2.00000E+00 9.94280E-04 8.24193E+02 3.00000E-03
3.00000E+00 8.99670E-04 7.29574E+02 3.00000E-03
4.00000E+00 8.11829E-04 6.43998E+02 3.00000E-03
5.00000E+00 7.28646E-04 5.67049E+02 3.00000E-03
6.00000E+00 6.53988E-04 4.97985E+02 3.00000E-03
7.00000E+00 5.86982E-04 4.35997E+02 3.00000E-03
8.00000E+00 5.26842E-04 3.80360E+02 3.00000E-03
9.00000E+00 4.72866E-04 3.30423E+02 3.00000E-03
1.00000E+01 4.14453E-04 2.85940E+02 3.00000E-03
1.10000E+01 3.58445E-04 2.47363E+02 3.00000E-03
1.20000E+01 3.10011E-04 2.13999E+02 3.00000E-03
1.30000E+01 2.68125E-04 1.85143E+02 3.00000E-03
1.40000E+01 2.31902E-04 1.60186E+02 3.00000E-03
1.50000E+01 2.00576E-04 1.38600E+02 3.00000E-03
1.60000E+01 1.73484E-04 1.19929E+02 3.00000E-03
1.70000E+01 1.50054E-04 1.03781E+02 3.00000E-03
1.80000E+01 1.29790E-04 8.98130E+01 3.00000E-03
1.90000E+01 1.12265E-04 7.77314E+01 3.00000E-03
2.00000E+01 9.71073E-05 6.72811E+01 3.00000E-03
2.10000E+01 8.39975E-05 5.82417E+01 3.00000E-03
2.20000E+01 7.26588E-05 5.04226E+01 3.00000E-03
2.30000E+01 6.28516E-05 4.36590E+01 3.00000E-03
2.40000E+01 5.43689E-05 3.78082E+01 3.00000E-03
2.50000E+01 4.70319E-05 3.27470E+01 3.00000E-03
2.75000E+01 3.27573E-05 2.28834E+01 3.00000E-03
3.00000E+01 2.29014E-05 1.59994E+01 3.00000E-03
3.25000E+01 1.60113E-05 1.11866E+01 3.00000E-03
3.50000E+01 1.11943E-05 7.82172E+00 3.00000E-03
3.75000E+01 7.82669E-06 5.46915E+00 3.00000E-03
4.00000E+01 5.47227E-06 3.82430E+00 3.00000E-03
4.25000E+01 3.82618E-06 2.67424E+00 3.00000E-03
4.50000E+01 2.67529E-06 1.87012E+00 3.00000E-03
4.75000E+01 1.87062E-06 1.30787E+00 3.00000E-03
5.00000E+01 1.30800E-06 9.14724E-01 3.00000E-03
5.50000E+01 6.39557E-07 4.47597E-01 3.00000E-03
6.00000E+01 3.12740E-07 2.19184E-01 3.00000E-03
6.50000E+01 1.52939E-07 1.07488E-01 3.00000E-03
7.00000E+01 7.47976E-08 5.28632E-02 3.00000E-03
7.50000E+01 3.65838E-08 2.61472E-02 3.00000E-03
8.00000E+01 1.78945E-08 1.30799E-02 3.00000E-03
8.50000E+01 8.75354E-09 6.68796E-03 3.00000E-03
9.00000E+01 4.28231E-09 3.56110E-03 3.00000E-03
9.50000E+01 2.09509E-09 2.03136E-03 3.00000E-03
1.00000E+02 1.00000E-09 1.28292E-03 3.00000E-03
1.05000E+02 9.52381E-10 7.82920E-04 3.00000E-03
1.10000E+02 9.09091E-10 2.82920E-04 3.00000E-03
1.15000E+02 8.69565E-10 1.00000E-05 3.00000E-03
1.20000E+02 8.33333E-10 0.00000E+00 3.00000E-03
