# Atmospheric Model 49012103
# Col. #1          #2           #3            #4
# Alt [km]    rho [g/cm^3] thick [g/cm^2]    n-1
0.00000E+00 1.26723E-03 1.04945E+03 3.00000E-03
1.00000E+00 1.14191E-03 9.29097E+02 3.00000E-03
2.00000E+00 1.02901E-03 8.20649E+02 3.00000E-03
3.00000E+00 9.27298E-04 7.22922E+02 3.00000E-03
4.00000E+00 8.32584E-04 6.34932E+02 3.00000E-03
5.00000E+00 7.44696E-04 5.56150E+02 3.00000E-03
6.00000E+00 6.66101E-04 4.85683E+02 3.00000E-03
7.00000E+00 5.95816E-04 4.22653E+02 3.00000E-03
8.00000E+00 5.32959E-04 3.66273E+02 3.00000E-03
9.00000E+00 4.75811E-04 3.15849E+02 3.00000E-03
1.00000E+01 4.10450E-04 2.71541E+02 3.00000E-03
1.10000E+01 3.52484E-04 2.33468E+02 3.00000E-03
1.20000E+01 3.02710E-04 2.00771E+02 3.00000E-03
1.30000E+01 2.59970E-04 1.72691E+02 3.00000E-03
1.40000E+01 2.23269E-04 1.48576E+02 3.00000E-03
1.50000E+01 1.91753E-04 1.27865E+02 3.00000E-03
1.60000E+01 1.64689E-04 1.10077E+02 3.00000E-03
1.70000E+01 1.41447E-04 9.47997E+01 3.00000E-03
1.80000E+01 1.21488E-04 8.16782E+01 3.00000E-03
1.90000E+01 1.04347E-04 7.04082E+01 3.00000E-03
2.00000E+01 8.96266E-05 6.07282E+01 3.00000E-03
2.10000E+01 7.69842E-05 5.24137E+01 3.00000E-03
2.20000E+01 6.61263E-05 4.52719E+01 3.00000E-03
2.30000E+01 5.68010E-05 3.91374E+01 3.00000E-03
2.40000E+01 4.87917E-05 3.38679E+01 3.00000E-03
2.50000E+01 4.19126E-05 2.93414E+01 3.00000E-03
2.75000E+01 2.90945E-05 2.05912E+01 3.00000E-03
3.00000E+01 2.04357E-05 1.44635E+01 3.00000E-03
3.25000E+01 1.43539E-05 1.01595E+01 3.00000E-03
3.50000E+01 1.00822E-05 7.13636E+00 3.00000E-03
3.75000E+01 7.08181E-06 5.01289E+00 3.00000E-03
4.00000E+01 4.97434E-06 3.52135E+00 3.00000E-03
4.25000E+01 3.49406E-06 2.47367E+00 3.00000E-03
4.50000E+01 2.45431E-06 1.73776E+00 3.00000E-03
4.75000E+01 1.72397E-06 1.22084E+00 3.00000E-03
5.00000E+01 1.21097E-06 8.57737E-01 3.00000E-03
5.50000E+01 5.97521E-07 4.23522E-01 3.00000E-03
6.00000E+01 2.94839E-07 2.09268E-01 3.00000E-03
6.50000E+01 1.45489E-07 1.03545E-01 3.00000E-03
7.00000E+01 7.17936E-08 5.13759E-02 3.00000E-03
7.50000E+01 3.54287E-08 2.56318E-02 3.00000E-03
8.00000E+01 1.74838E-08 1.29274E-02 3.00000E-03
8.50000E+01 8.62842E-09 6.65777E-03 3.00000E-03
9.00000E+01 4.25831E-09 3.56363E-03 3.00000E-03
9.50000E+01 2.10163E-09 2.03658E-03 3.00000E-03
1.00000E+02 1.00000E-09 1.28292E-03 3.00000E-03
1.05000E+02 9.52381E-10 7.82920E-04 3.00000E-03
1.10000E+02 9.09091E-10 2.82920E-04 3.00000E-03
1.15000E+02 8.69565E-10 1.00000E-05 3.00000E-03
1.20000E+02 8.33333E-10 0.00000E+00 3.00000E-03
