# Atmospheric Model 4901202106
# Col. #1          #2           #3            #4
# Alt [km]    rho [g/cm^3] thick [g/cm^2]    n-1
0.00000E+00 1.20308E-03 1.04764E+03 3.00000E-03
1.00000E+00 1.09083E-03 9.33039E+02 3.00000E-03
2.00000E+00 9.89075E-04 8.29127E+02 3.00000E-03
3.00000E+00 8.96824E-04 7.34907E+02 3.00000E-03
4.00000E+00 8.11028E-04 6.49506E+02 3.00000E-03
5.00000E+00 7.28630E-04 5.72597E+02 3.00000E-03
6.00000E+00 6.54605E-04 5.03501E+02 3.00000E-03
7.00000E+00 5.88101E-04 4.41425E+02 3.00000E-03
8.00000E+00 5.28354E-04 3.85656E+02 3.00000E-03
9.00000E+00 4.74678E-04 3.35552E+02 3.00000E-03
1.00000E+01 4.17566E-04 2.90807E+02 3.00000E-03
1.10000E+01 3.61682E-04 2.51911E+02 3.00000E-03
1.20000E+01 3.13281E-04 2.18221E+02 3.00000E-03
1.30000E+01 2.71362E-04 1.89039E+02 3.00000E-03
1.40000E+01 2.35056E-04 1.63762E+02 3.00000E-03
1.50000E+01 2.03610E-04 1.41866E+02 3.00000E-03
1.60000E+01 1.76373E-04 1.22900E+02 3.00000E-03
1.70000E+01 1.52783E-04 1.06470E+02 3.00000E-03
1.80000E+01 1.32349E-04 9.22380E+01 3.00000E-03
1.90000E+01 1.14650E-04 7.99092E+01 3.00000E-03
2.00000E+01 9.93200E-05 6.92290E+01 3.00000E-03
2.10000E+01 8.60407E-05 5.99768E+01 3.00000E-03
2.20000E+01 7.45381E-05 5.19617E+01 3.00000E-03
2.30000E+01 6.45742E-05 4.50180E+01 3.00000E-03
2.40000E+01 5.59431E-05 3.90024E+01 3.00000E-03
2.50000E+01 4.84664E-05 3.37909E+01 3.00000E-03
2.75000E+01 3.38612E-05 2.36088E+01 3.00000E-03
3.00000E+01 2.36568E-05 1.64952E+01 3.00000E-03
3.25000E+01 1.65279E-05 1.15252E+01 3.00000E-03
3.50000E+01 1.15475E-05 8.05295E+00 3.00000E-03
3.75000E+01 8.06803E-06 5.62695E+00 3.00000E-03
4.00000E+01 5.63711E-06 3.93193E+00 3.00000E-03
4.25000E+01 3.93871E-06 2.74761E+00 3.00000E-03
4.50000E+01 2.75208E-06 1.92011E+00 3.00000E-03
4.75000E+01 1.92299E-06 1.34190E+00 3.00000E-03
5.00000E+01 1.34370E-06 9.37884E-01 3.00000E-03
5.50000E+01 6.56116E-07 4.58296E-01 3.00000E-03
6.00000E+01 3.20401E-07 2.24109E-01 3.00000E-03
6.50000E+01 1.56474E-07 1.09745E-01 3.00000E-03
7.00000E+01 7.64230E-08 5.38915E-02 3.00000E-03
7.50000E+01 3.73286E-08 2.66111E-02 3.00000E-03
8.00000E+01 1.82345E-08 1.32856E-02 3.00000E-03
8.50000E+01 8.90796E-09 6.77603E-03 3.00000E-03
9.00000E+01 4.35208E-09 3.59587E-03 3.00000E-03
9.50000E+01 2.12642E-09 2.04211E-03 3.00000E-03
1.00000E+02 1.00000E-09 1.28292E-03 3.00000E-03
1.05000E+02 9.52381E-10 7.82920E-04 3.00000E-03
1.10000E+02 9.09091E-10 2.82920E-04 3.00000E-03
1.15000E+02 8.69565E-10 1.00000E-05 3.00000E-03
1.20000E+02 8.33333E-10 0.00000E+00 3.00000E-03
