# Atmospheric Model 57012105
# Col. #1          #2           #3            #4
# Alt [km]    rho [g/cm^3] thick [g/cm^2]    n-1
0.00000E+00 1.15513E-03 1.05514E+03 3.00000E-03
1.00000E+00 1.05115E-03 9.44904E+02 3.00000E-03
2.00000E+00 9.56532E-04 8.44594E+02 3.00000E-03
3.00000E+00 8.70439E-04 7.53313E+02 3.00000E-03
4.00000E+00 7.90221E-04 6.70269E+02 3.00000E-03
5.00000E+00 7.11329E-04 5.95260E+02 3.00000E-03
6.00000E+00 6.40314E-04 5.27740E+02 3.00000E-03
7.00000E+00 5.76389E-04 4.66961E+02 3.00000E-03
8.00000E+00 5.18846E-04 4.12250E+02 3.00000E-03
9.00000E+00 4.67049E-04 3.63000E+02 3.00000E-03
1.00000E+01 4.17868E-04 3.18700E+02 3.00000E-03
1.10000E+01 3.67193E-04 2.79502E+02 3.00000E-03
1.20000E+01 3.22664E-04 2.45057E+02 3.00000E-03
1.30000E+01 2.83535E-04 2.14789E+02 3.00000E-03
1.40000E+01 2.49151E-04 1.88192E+02 3.00000E-03
1.50000E+01 2.18937E-04 1.64820E+02 3.00000E-03
1.60000E+01 1.92387E-04 1.44283E+02 3.00000E-03
1.70000E+01 1.69056E-04 1.26236E+02 3.00000E-03
1.80000E+01 1.48555E-04 1.10377E+02 3.00000E-03
1.90000E+01 1.30540E-04 9.64417E+01 3.00000E-03
2.00000E+01 1.14710E-04 8.41962E+01 3.00000E-03
2.10000E+01 1.00800E-04 7.34357E+01 3.00000E-03
2.20000E+01 8.85762E-05 6.39801E+01 3.00000E-03
2.30000E+01 7.78349E-05 5.56711E+01 3.00000E-03
2.40000E+01 6.83963E-05 4.83697E+01 3.00000E-03
2.50000E+01 6.01022E-05 4.19537E+01 3.00000E-03
2.75000E+01 4.27760E-05 2.91510E+01 3.00000E-03
3.00000E+01 2.96324E-05 2.02004E+01 3.00000E-03
3.25000E+01 2.05297E-05 1.39996E+01 3.00000E-03
3.50000E+01 1.42249E-05 9.70339E+00 3.00000E-03
3.75000E+01 9.85747E-06 6.72642E+00 3.00000E-03
4.00000E+01 6.83173E-06 4.66335E+00 3.00000E-03
4.25000E+01 4.73527E-06 3.23346E+00 3.00000E-03
4.50000E+01 3.28253E-06 2.24231E+00 3.00000E-03
4.75000E+01 2.27573E-06 1.55520E+00 3.00000E-03
5.00000E+01 1.57791E-06 1.07881E+00 3.00000E-03
5.50000E+01 7.58835E-07 5.19410E-01 3.00000E-03
6.00000E+01 3.65094E-07 2.50335E-01 3.00000E-03
6.50000E+01 1.75733E-07 1.20852E-01 3.00000E-03
7.00000E+01 8.46227E-08 5.85147E-02 3.00000E-03
7.50000E+01 4.07669E-08 2.84912E-02 3.00000E-03
8.00000E+01 1.96477E-08 1.40247E-02 3.00000E-03
8.50000E+01 9.47324E-09 7.05124E-03 3.00000E-03
9.00000E+01 4.56945E-09 3.68834E-03 3.00000E-03
9.50000E+01 2.20499E-09 2.06595E-03 3.00000E-03
1.00000E+02 1.00000E-09 1.28292E-03 3.00000E-03
1.05000E+02 9.52381E-10 7.82920E-04 3.00000E-03
1.10000E+02 9.09091E-10 2.82920E-04 3.00000E-03
1.15000E+02 8.69565E-10 1.00000E-05 3.00000E-03
1.20000E+02 8.33333E-10 0.00000E+00 3.00000E-03
