# Atmospheric Model 57012102
# Col. #1          #2           #3            #4
# Alt [km]    rho [g/cm^3] thick [g/cm^2]    n-1
0.00000E+00 1.15225E-03 1.05463E+03 3.00000E-03
1.00000E+00 1.04923E-03 9.44637E+02 3.00000E-03
2.00000E+00 9.55426E-04 8.44477E+02 3.00000E-03
3.00000E+00 8.70009E-04 7.53272E+02 3.00000E-03
4.00000E+00 7.90125E-04 6.70245E+02 3.00000E-03
5.00000E+00 7.11127E-04 5.95252E+02 3.00000E-03
6.00000E+00 6.40028E-04 5.27756E+02 3.00000E-03
7.00000E+00 5.76039E-04 4.67009E+02 3.00000E-03
8.00000E+00 5.18447E-04 4.12335E+02 3.00000E-03
9.00000E+00 4.66614E-04 3.63128E+02 3.00000E-03
1.00000E+01 4.17334E-04 3.18875E+02 3.00000E-03
1.10000E+01 3.66826E-04 2.79721E+02 3.00000E-03
1.20000E+01 3.22431E-04 2.45306E+02 3.00000E-03
1.30000E+01 2.83409E-04 2.15056E+02 3.00000E-03
1.40000E+01 2.49110E-04 1.88467E+02 3.00000E-03
1.50000E+01 2.18961E-04 1.65096E+02 3.00000E-03
1.60000E+01 1.92462E-04 1.44553E+02 3.00000E-03
1.70000E+01 1.69170E-04 1.26497E+02 3.00000E-03
1.80000E+01 1.48696E-04 1.10626E+02 3.00000E-03
1.90000E+01 1.30701E-04 9.66751E+01 3.00000E-03
2.00000E+01 1.14883E-04 8.44129E+01 3.00000E-03
2.10000E+01 1.00980E-04 7.36346E+01 3.00000E-03
2.20000E+01 8.87592E-05 6.41608E+01 3.00000E-03
2.30000E+01 7.80176E-05 5.58335E+01 3.00000E-03
2.40000E+01 6.85759E-05 4.85140E+01 3.00000E-03
2.50000E+01 6.02769E-05 4.20803E+01 3.00000E-03
2.75000E+01 4.28352E-05 2.92466E+01 3.00000E-03
3.00000E+01 2.96927E-05 2.02808E+01 3.00000E-03
3.25000E+01 2.05853E-05 1.40655E+01 3.00000E-03
3.50000E+01 1.42733E-05 9.75623E+00 3.00000E-03
3.75000E+01 9.89799E-06 6.76815E+00 3.00000E-03
4.00000E+01 6.86480E-06 4.69590E+00 3.00000E-03
4.25000E+01 4.76174E-06 3.25859E+00 3.00000E-03
4.50000E+01 3.30339E-06 2.26154E+00 3.00000E-03
4.75000E+01 2.29197E-06 1.56982E+00 3.00000E-03
5.00000E+01 1.59043E-06 1.08985E+00 3.00000E-03
5.50000E+01 7.66108E-07 5.25606E-01 3.00000E-03
6.00000E+01 3.69217E-07 2.53752E-01 3.00000E-03
6.50000E+01 1.78027E-07 1.22706E-01 3.00000E-03
7.00000E+01 8.58811E-08 5.95059E-02 3.00000E-03
7.50000E+01 4.14491E-08 2.90115E-02 3.00000E-03
8.00000E+01 2.00140E-08 1.42908E-02 3.00000E-03
8.50000E+01 9.66828E-09 7.18142E-03 3.00000E-03
9.00000E+01 4.67260E-09 3.74636E-03 3.00000E-03
9.50000E+01 2.25922E-09 2.08591E-03 3.00000E-03
1.00000E+02 1.00000E-09 1.28292E-03 3.00000E-03
1.05000E+02 9.52381E-10 7.82920E-04 3.00000E-03
1.10000E+02 9.09091E-10 2.82920E-04 3.00000E-03
1.15000E+02 8.69565E-10 1.00000E-05 3.00000E-03
1.20000E+02 8.33333E-10 0.00000E+00 3.00000E-03
