# Atmospheric Model 93042102
# Col. #1          #2           #3            #4
# Alt [km]    rho [g/cm^3] thick [g/cm^2]    n-1
0.00000E+00 1.15294E-03 1.05497E+03 3.00000E-03
1.00000E+00 1.04937E-03 9.44932E+02 3.00000E-03
2.00000E+00 9.55105E-04 8.44783E+02 3.00000E-03
3.00000E+00 8.69307E-04 7.53629E+02 3.00000E-03
4.00000E+00 7.89133E-04 6.70689E+02 3.00000E-03
5.00000E+00 7.10266E-04 5.95788E+02 3.00000E-03
6.00000E+00 6.39281E-04 5.28373E+02 3.00000E-03
7.00000E+00 5.75391E-04 4.67696E+02 3.00000E-03
8.00000E+00 5.17887E-04 4.13082E+02 3.00000E-03
9.00000E+00 4.66131E-04 3.63927E+02 3.00000E-03
1.00000E+01 4.17002E-04 3.19717E+02 3.00000E-03
1.10000E+01 3.66675E-04 2.80587E+02 3.00000E-03
1.20000E+01 3.22421E-04 2.46180E+02 3.00000E-03
1.30000E+01 2.83509E-04 2.15925E+02 3.00000E-03
1.40000E+01 2.49293E-04 1.89322E+02 3.00000E-03
1.50000E+01 2.19207E-04 1.65929E+02 3.00000E-03
1.60000E+01 1.92752E-04 1.45359E+02 3.00000E-03
1.70000E+01 1.69489E-04 1.27272E+02 3.00000E-03
1.80000E+01 1.49034E-04 1.11368E+02 3.00000E-03
1.90000E+01 1.31048E-04 9.73830E+01 3.00000E-03
2.00000E+01 1.15233E-04 8.50859E+01 3.00000E-03
2.10000E+01 1.01326E-04 7.42729E+01 3.00000E-03
2.20000E+01 8.90977E-05 6.47648E+01 3.00000E-03
2.30000E+01 7.83452E-05 5.64042E+01 3.00000E-03
2.40000E+01 6.88903E-05 4.90525E+01 3.00000E-03
2.50000E+01 6.05765E-05 4.25881E+01 3.00000E-03
2.75000E+01 4.31312E-05 2.96821E+01 3.00000E-03
3.00000E+01 2.99851E-05 2.06420E+01 3.00000E-03
3.25000E+01 2.08483E-05 1.43569E+01 3.00000E-03
3.50000E+01 1.44974E-05 9.98668E+00 3.00000E-03
3.75000E+01 1.00822E-05 6.94759E+00 3.00000E-03
4.00000E+01 7.01255E-06 4.83393E+00 3.00000E-03
4.25000E+01 4.87803E-06 3.36372E+00 3.00000E-03
4.50000E+01 3.39362E-06 2.34097E+00 3.00000E-03
4.75000E+01 2.36119E-06 1.62942E+00 3.00000E-03
5.00000E+01 1.64303E-06 1.13431E+00 3.00000E-03
5.50000E+01 7.95831E-07 5.49981E-01 3.00000E-03
6.00000E+01 3.85642E-07 2.66898E-01 3.00000E-03
6.50000E+01 1.86953E-07 1.29696E-01 3.00000E-03
7.00000E+01 9.06694E-08 6.31712E-02 3.00000E-03
7.50000E+01 4.39913E-08 3.09016E-02 3.00000E-03
8.00000E+01 2.13523E-08 1.52422E-02 3.00000E-03
8.50000E+01 1.03680E-08 7.64020E-03 3.00000E-03
9.00000E+01 5.03625E-09 3.94829E-03 3.00000E-03
9.50000E+01 2.44728E-09 2.15465E-03 3.00000E-03
1.00000E+02 1.00000E-09 1.28292E-03 3.00000E-03
1.05000E+02 9.52381E-10 7.82920E-04 3.00000E-03
1.10000E+02 9.09091E-10 2.82920E-04 3.00000E-03
1.15000E+02 8.69565E-10 1.00000E-05 3.00000E-03
1.20000E+02 8.33333E-10 0.00000E+00 3.00000E-03
