# Atmospheric Model 93042103
# Col. #1          #2           #3            #4
# Alt [km]    rho [g/cm^3] thick [g/cm^2]    n-1
0.00000E+00 1.15321E-03 1.05404E+03 3.00000E-03
1.00000E+00 1.04987E-03 9.43963E+02 3.00000E-03
2.00000E+00 9.55788E-04 8.43753E+02 3.00000E-03
3.00000E+00 8.70138E-04 7.52524E+02 3.00000E-03
4.00000E+00 7.90050E-04 6.69495E+02 3.00000E-03
5.00000E+00 7.11190E-04 5.94502E+02 3.00000E-03
6.00000E+00 6.40202E-04 5.26995E+02 3.00000E-03
7.00000E+00 5.76301E-04 4.66226E+02 3.00000E-03
8.00000E+00 5.18778E-04 4.11522E+02 3.00000E-03
9.00000E+00 4.66998E-04 3.62279E+02 3.00000E-03
1.00000E+01 4.17539E-04 3.17991E+02 3.00000E-03
1.10000E+01 3.66824E-04 2.78827E+02 3.00000E-03
1.20000E+01 3.22269E-04 2.44421E+02 3.00000E-03
1.30000E+01 2.83126E-04 2.14193E+02 3.00000E-03
1.40000E+01 2.48737E-04 1.87637E+02 3.00000E-03
1.50000E+01 2.18526E-04 1.64306E+02 3.00000E-03
1.60000E+01 1.91984E-04 1.43810E+02 3.00000E-03
1.70000E+01 1.68666E-04 1.25802E+02 3.00000E-03
1.80000E+01 1.48181E-04 1.09982E+02 3.00000E-03
1.90000E+01 1.30183E-04 9.60832E+01 3.00000E-03
2.00000E+01 1.14372E-04 8.38725E+01 3.00000E-03
2.10000E+01 1.00481E-04 7.31449E+01 3.00000E-03
2.20000E+01 8.82771E-05 6.37202E+01 3.00000E-03
2.30000E+01 7.75556E-05 5.54401E+01 3.00000E-03
2.40000E+01 6.81363E-05 4.81657E+01 3.00000E-03
2.50000E+01 5.98611E-05 4.17747E+01 3.00000E-03
2.75000E+01 4.25485E-05 2.90309E+01 3.00000E-03
3.00000E+01 2.94852E-05 2.01264E+01 3.00000E-03
3.25000E+01 2.04358E-05 1.39553E+01 3.00000E-03
3.50000E+01 1.41659E-05 9.67792E+00 3.00000E-03
3.75000E+01 9.82126E-06 6.71264E+00 3.00000E-03
4.00000E+01 6.81013E-06 4.65666E+00 3.00000E-03
4.25000E+01 4.72291E-06 3.23093E+00 3.00000E-03
4.50000E+01 3.27589E-06 2.24210E+00 3.00000E-03
4.75000E+01 2.27255E-06 1.55618E+00 3.00000E-03
5.00000E+01 1.57675E-06 1.08031E+00 3.00000E-03
5.50000E+01 7.59372E-07 5.20970E-01 3.00000E-03
6.00000E+01 3.65931E-07 2.51520E-01 3.00000E-03
6.50000E+01 1.76438E-07 1.21643E-01 3.00000E-03
7.00000E+01 8.51201E-08 5.90052E-02 3.00000E-03
7.50000E+01 4.10878E-08 2.87792E-02 3.00000E-03
8.00000E+01 1.98441E-08 1.41855E-02 3.00000E-03
8.50000E+01 9.58918E-09 7.13558E-03 3.00000E-03
9.00000E+01 4.63619E-09 3.72806E-03 3.00000E-03
9.50000E+01 2.24267E-09 2.08021E-03 3.00000E-03
1.00000E+02 1.00000E-09 1.28292E-03 3.00000E-03
1.05000E+02 9.52381E-10 7.82920E-04 3.00000E-03
1.10000E+02 9.09091E-10 2.82920E-04 3.00000E-03
1.15000E+02 8.69565E-10 1.00000E-05 3.00000E-03
1.20000E+02 8.33333E-10 0.00000E+00 3.00000E-03
