# Atmospheric Model 5604202103
# Col. #1          #2           #3            #4
# Alt [km]    rho [g/cm^3] thick [g/cm^2]    n-1
0.00000E+00 1.20837E-03 1.04964E+03 3.00000E-03
1.00000E+00 1.09091E-03 9.34772E+02 3.00000E-03
2.00000E+00 9.84896E-04 8.31073E+02 3.00000E-03
3.00000E+00 8.89214E-04 7.37449E+02 3.00000E-03
4.00000E+00 8.02287E-04 6.52929E+02 3.00000E-03
5.00000E+00 7.22912E-04 5.76738E+02 3.00000E-03
6.00000E+00 6.51396E-04 5.08085E+02 3.00000E-03
7.00000E+00 5.86962E-04 4.46223E+02 3.00000E-03
8.00000E+00 5.28907E-04 3.90480E+02 3.00000E-03
9.00000E+00 4.76599E-04 3.40250E+02 3.00000E-03
1.00000E+01 4.20550E-04 2.95251E+02 3.00000E-03
1.10000E+01 3.64732E-04 2.56053E+02 3.00000E-03
1.20000E+01 3.16328E-04 2.22057E+02 3.00000E-03
1.30000E+01 2.74353E-04 1.92573E+02 3.00000E-03
1.40000E+01 2.37953E-04 1.67001E+02 3.00000E-03
1.50000E+01 2.06385E-04 1.44822E+02 3.00000E-03
1.60000E+01 1.79009E-04 1.25584E+02 3.00000E-03
1.70000E+01 1.55267E-04 1.08899E+02 3.00000E-03
1.80000E+01 1.34677E-04 9.44259E+01 3.00000E-03
1.90000E+01 1.16819E-04 8.18723E+01 3.00000E-03
2.00000E+01 1.01331E-04 7.09832E+01 3.00000E-03
2.10000E+01 8.78977E-05 6.15377E+01 3.00000E-03
2.20000E+01 7.62468E-05 5.33443E+01 3.00000E-03
2.30000E+01 6.61415E-05 4.62369E+01 3.00000E-03
2.40000E+01 5.73765E-05 4.00714E+01 3.00000E-03
2.50000E+01 4.97739E-05 3.47229E+01 3.00000E-03
2.75000E+01 3.48454E-05 2.42517E+01 3.00000E-03
3.00000E+01 2.43280E-05 1.69336E+01 3.00000E-03
3.25000E+01 1.69856E-05 1.18243E+01 3.00000E-03
3.50000E+01 1.18597E-05 8.25689E+00 3.00000E-03
3.75000E+01 8.28094E-06 5.76605E+00 3.00000E-03
4.00000E+01 5.78232E-06 4.02680E+00 3.00000E-03
4.25000E+01 4.03775E-06 2.81232E+00 3.00000E-03
4.50000E+01 2.81962E-06 1.96424E+00 3.00000E-03
4.75000E+01 1.96906E-06 1.37201E+00 3.00000E-03
5.00000E+01 1.37512E-06 9.58420E-01 3.00000E-03
5.50000E+01 6.70736E-07 4.67852E-01 3.00000E-03
6.00000E+01 3.27206E-07 2.28557E-01 3.00000E-03
6.50000E+01 1.59643E-07 1.11813E-01 3.00000E-03
7.00000E+01 7.79003E-08 5.48512E-02 3.00000E-03
7.50000E+01 3.80177E-08 2.70540E-02 3.00000E-03
8.00000E+01 1.85563E-08 1.34873E-02 3.00000E-03
8.50000E+01 9.05845E-09 6.86508E-03 3.00000E-03
9.00000E+01 4.42256E-09 3.63219E-03 3.00000E-03
9.50000E+01 2.15949E-09 2.05371E-03 3.00000E-03
1.00000E+02 1.00000E-09 1.28292E-03 3.00000E-03
1.05000E+02 9.52381E-10 7.82920E-04 3.00000E-03
1.10000E+02 9.09091E-10 2.82920E-04 3.00000E-03
1.15000E+02 8.69565E-10 1.00000E-05 3.00000E-03
1.20000E+02 8.33333E-10 0.00000E+00 3.00000E-03
