# Atmospheric Model 5604202107
# Col. #1          #2           #3            #4
# Alt [km]    rho [g/cm^3] thick [g/cm^2]    n-1
0.00000E+00 1.26034E-03 1.05378E+03 3.00000E-03
1.00000E+00 1.13118E-03 9.34321E+02 3.00000E-03
2.00000E+00 1.01527E-03 8.27104E+02 3.00000E-03
3.00000E+00 9.11266E-04 7.30871E+02 3.00000E-03
4.00000E+00 8.17964E-04 6.44499E+02 3.00000E-03
5.00000E+00 7.34911E-04 5.66929E+02 3.00000E-03
6.00000E+00 6.60304E-04 4.97235E+02 3.00000E-03
7.00000E+00 5.93284E-04 4.34615E+02 3.00000E-03
8.00000E+00 5.33076E-04 3.78351E+02 3.00000E-03
9.00000E+00 4.78989E-04 3.27796E+02 3.00000E-03
1.00000E+01 4.17364E-04 2.82884E+02 3.00000E-03
1.10000E+01 3.59906E-04 2.44092E+02 3.00000E-03
1.20000E+01 3.10363E-04 2.10640E+02 3.00000E-03
1.30000E+01 2.67645E-04 1.81792E+02 3.00000E-03
1.40000E+01 2.30811E-04 1.56915E+02 3.00000E-03
1.50000E+01 1.99049E-04 1.35461E+02 3.00000E-03
1.60000E+01 1.71661E-04 1.16959E+02 3.00000E-03
1.70000E+01 1.48044E-04 1.01003E+02 3.00000E-03
1.80000E+01 1.27678E-04 8.72421E+01 3.00000E-03
1.90000E+01 1.10116E-04 7.53741E+01 3.00000E-03
2.00000E+01 9.49711E-05 6.51384E+01 3.00000E-03
2.10000E+01 8.19106E-05 5.63104E+01 3.00000E-03
2.20000E+01 7.06474E-05 4.86964E+01 3.00000E-03
2.30000E+01 6.09339E-05 4.21293E+01 3.00000E-03
2.40000E+01 5.25569E-05 3.64651E+01 3.00000E-03
2.50000E+01 4.53323E-05 3.15796E+01 3.00000E-03
2.75000E+01 3.15214E-05 2.20922E+01 3.00000E-03
3.00000E+01 2.20629E-05 1.54643E+01 3.00000E-03
3.25000E+01 1.54430E-05 1.08252E+01 3.00000E-03
3.50000E+01 1.08096E-05 7.57798E+00 3.00000E-03
3.75000E+01 7.56659E-06 5.30501E+00 3.00000E-03
4.00000E+01 5.29664E-06 3.71394E+00 3.00000E-03
4.25000E+01 3.70775E-06 2.60018E+00 3.00000E-03
4.50000E+01 2.59556E-06 1.82051E+00 3.00000E-03
4.75000E+01 1.81703E-06 1.27471E+00 3.00000E-03
5.00000E+01 1.27205E-06 8.92611E-01 3.00000E-03
5.50000E+01 6.23474E-07 4.37843E-01 3.00000E-03
6.00000E+01 3.05613E-07 2.14936E-01 3.00000E-03
6.50000E+01 1.49819E-07 1.05668E-01 3.00000E-03
7.00000E+01 7.34513E-08 5.21004E-02 3.00000E-03
7.50000E+01 3.60140E-08 2.58367E-02 3.00000E-03
8.00000E+01 1.76596E-08 1.29588E-02 3.00000E-03
8.50000E+01 8.66024E-09 6.64385E-03 3.00000E-03
9.00000E+01 4.24733E-09 3.54689E-03 3.00000E-03
9.50000E+01 2.08324E-09 2.02796E-03 3.00000E-03
1.00000E+02 1.00000E-09 1.28292E-03 3.00000E-03
1.05000E+02 9.52381E-10 7.82920E-04 3.00000E-03
1.10000E+02 9.09091E-10 2.82920E-04 3.00000E-03
1.15000E+02 8.69565E-10 1.00000E-05 3.00000E-03
1.20000E+02 8.33333E-10 0.00000E+00 3.00000E-03
