# Atmospheric Model 5604202108
# Col. #1          #2           #3            #4
# Alt [km]    rho [g/cm^3] thick [g/cm^2]    n-1
0.00000E+00 1.25362E-03 1.04874E+03 3.00000E-03
1.00000E+00 1.12765E-03 9.29786E+02 3.00000E-03
2.00000E+00 1.01436E-03 8.22785E+02 3.00000E-03
3.00000E+00 9.12481E-04 7.26533E+02 3.00000E-03
4.00000E+00 8.19668E-04 6.39980E+02 3.00000E-03
5.00000E+00 7.35882E-04 5.62278E+02 3.00000E-03
6.00000E+00 6.60683E-04 4.92518E+02 3.00000E-03
7.00000E+00 5.93190E-04 4.29885E+02 3.00000E-03
8.00000E+00 5.32610E-04 3.73649E+02 3.00000E-03
9.00000E+00 4.78004E-04 3.23157E+02 3.00000E-03
1.00000E+01 4.15108E-04 2.78445E+02 3.00000E-03
1.10000E+01 3.57318E-04 2.39896E+02 3.00000E-03
1.20000E+01 3.07583E-04 2.06713E+02 3.00000E-03
1.30000E+01 2.64779E-04 1.78148E+02 3.00000E-03
1.40000E+01 2.27940E-04 1.53558E+02 3.00000E-03
1.50000E+01 1.96232E-04 1.32389E+02 3.00000E-03
1.60000E+01 1.68941E-04 1.14165E+02 3.00000E-03
1.70000E+01 1.45449E-04 9.84748E+01 3.00000E-03
1.80000E+01 1.25229E-04 8.49661E+01 3.00000E-03
1.90000E+01 1.07823E-04 7.33353E+01 3.00000E-03
2.00000E+01 9.28391E-05 6.33209E+01 3.00000E-03
2.10000E+01 7.99403E-05 5.46980E+01 3.00000E-03
2.20000E+01 6.88358E-05 4.72730E+01 3.00000E-03
2.30000E+01 5.92758E-05 4.08794E+01 3.00000E-03
2.40000E+01 5.10452E-05 3.53736E+01 3.00000E-03
2.50000E+01 4.39588E-05 3.06322E+01 3.00000E-03
2.75000E+01 3.04877E-05 2.14486E+01 3.00000E-03
3.00000E+01 2.13682E-05 1.50340E+01 3.00000E-03
3.25000E+01 1.49769E-05 1.05381E+01 3.00000E-03
3.50000E+01 1.04975E-05 7.38687E+00 3.00000E-03
3.75000E+01 7.35796E-06 5.17814E+00 3.00000E-03
4.00000E+01 5.15751E-06 3.62996E+00 3.00000E-03
4.25000E+01 3.61519E-06 2.54477E+00 3.00000E-03
4.50000E+01 2.53415E-06 1.78409E+00 3.00000E-03
4.75000E+01 1.77641E-06 1.25086E+00 3.00000E-03
5.00000E+01 1.24527E-06 8.77077E-01 3.00000E-03
5.50000E+01 6.11969E-07 4.31362E-01 3.00000E-03
6.00000E+01 3.00768E-07 2.12313E-01 3.00000E-03
6.50000E+01 1.47833E-07 1.04652E-01 3.00000E-03
7.00000E+01 7.26684E-08 5.17326E-02 3.00000E-03
7.50000E+01 3.57236E-08 2.57188E-02 3.00000E-03
8.00000E+01 1.75630E-08 1.29300E-02 3.00000E-03
8.50000E+01 8.63531E-09 6.64234E-03 3.00000E-03
9.00000E+01 4.24610E-09 3.55075E-03 3.00000E-03
9.50000E+01 2.08803E-09 2.03052E-03 3.00000E-03
1.00000E+02 1.00000E-09 1.28292E-03 3.00000E-03
1.05000E+02 9.52381E-10 7.82920E-04 3.00000E-03
1.10000E+02 9.09091E-10 2.82920E-04 3.00000E-03
1.15000E+02 8.69565E-10 1.00000E-05 3.00000E-03
1.20000E+02 8.33333E-10 0.00000E+00 3.00000E-03
