# Atmospheric Model 5407202106
# Col. #1          #2           #3            #4
# Alt [km]    rho [g/cm^3] thick [g/cm^2]    n-1
0.00000E+00 1.23177E-03 1.05274E+03 3.00000E-03
1.00000E+00 1.11058E-03 9.35725E+02 3.00000E-03
2.00000E+00 1.00133E-03 8.30223E+02 3.00000E-03
3.00000E+00 9.02841E-04 7.35100E+02 3.00000E-03
4.00000E+00 8.13393E-04 6.49344E+02 3.00000E-03
5.00000E+00 7.31796E-04 5.72156E+02 3.00000E-03
6.00000E+00 6.58392E-04 5.02712E+02 3.00000E-03
7.00000E+00 5.92358E-04 4.40232E+02 3.00000E-03
8.00000E+00 5.32955E-04 3.84019E+02 3.00000E-03
9.00000E+00 4.79514E-04 3.33443E+02 3.00000E-03
1.00000E+01 4.20006E-04 2.88342E+02 3.00000E-03
1.10000E+01 3.62953E-04 2.49264E+02 3.00000E-03
1.20000E+01 3.13656E-04 2.15493E+02 3.00000E-03
1.30000E+01 2.71060E-04 1.86309E+02 3.00000E-03
1.40000E+01 2.34253E-04 1.61088E+02 3.00000E-03
1.50000E+01 2.02448E-04 1.39292E+02 3.00000E-03
1.60000E+01 1.74964E-04 1.20455E+02 3.00000E-03
1.70000E+01 1.51214E-04 1.04175E+02 3.00000E-03
1.80000E+01 1.30691E-04 9.01047E+01 3.00000E-03
1.90000E+01 1.12955E-04 7.79440E+01 3.00000E-03
2.00000E+01 9.76275E-05 6.74335E+01 3.00000E-03
2.10000E+01 8.43817E-05 5.83492E+01 3.00000E-03
2.20000E+01 7.29344E-05 5.04973E+01 3.00000E-03
2.30000E+01 6.30413E-05 4.37105E+01 3.00000E-03
2.40000E+01 5.44911E-05 3.78443E+01 3.00000E-03
2.50000E+01 4.71014E-05 3.27736E+01 3.00000E-03
2.75000E+01 3.28010E-05 2.29005E+01 3.00000E-03
3.00000E+01 2.29264E-05 1.60082E+01 3.00000E-03
3.25000E+01 1.60250E-05 1.11906E+01 3.00000E-03
3.50000E+01 1.12016E-05 7.82324E+00 3.00000E-03
3.75000E+01 7.83020E-06 5.46937E+00 3.00000E-03
4.00000E+01 5.47373E-06 3.82393E+00 3.00000E-03
4.25000E+01 3.82656E-06 2.67365E+00 3.00000E-03
4.50000E+01 2.67516E-06 1.86951E+00 3.00000E-03
4.75000E+01 1.87027E-06 1.30732E+00 3.00000E-03
5.00000E+01 1.30760E-06 9.14271E-01 3.00000E-03
5.50000E+01 6.39240E-07 4.47327E-01 3.00000E-03
6.00000E+01 3.12544E-07 2.19042E-01 3.00000E-03
6.50000E+01 1.52833E-07 1.07419E-01 3.00000E-03
7.00000E+01 7.47449E-08 5.28332E-02 3.00000E-03
7.50000E+01 3.65599E-08 2.61356E-02 3.00000E-03
8.00000E+01 1.78848E-08 1.30762E-02 3.00000E-03
8.50000E+01 8.75028E-09 6.68728E-03 3.00000E-03
9.00000E+01 4.28169E-09 3.56128E-03 3.00000E-03
9.50000E+01 2.09539E-09 2.03157E-03 3.00000E-03
1.00000E+02 1.00000E-09 1.28292E-03 3.00000E-03
1.05000E+02 9.52381E-10 7.82920E-04 3.00000E-03
1.10000E+02 9.09091E-10 2.82920E-04 3.00000E-03
1.15000E+02 8.69565E-10 1.00000E-05 3.00000E-03
1.20000E+02 8.33333E-10 0.00000E+00 3.00000E-03
