# Atmospheric Model 5407202108
# Col. #1          #2           #3            #4
# Alt [km]    rho [g/cm^3] thick [g/cm^2]    n-1
0.00000E+00 1.23676E-03 1.05043E+03 3.00000E-03
1.00000E+00 1.11437E-03 9.32976E+02 3.00000E-03
2.00000E+00 1.00410E-03 8.27148E+02 3.00000E-03
3.00000E+00 9.04748E-04 7.31792E+02 3.00000E-03
4.00000E+00 8.14512E-04 6.45887E+02 3.00000E-03
5.00000E+00 7.32665E-04 5.68600E+02 3.00000E-03
6.00000E+00 6.59061E-04 4.99079E+02 3.00000E-03
7.00000E+00 5.92868E-04 4.36541E+02 3.00000E-03
8.00000E+00 5.33338E-04 3.80283E+02 3.00000E-03
9.00000E+00 4.79798E-04 3.29674E+02 3.00000E-03
1.00000E+01 4.19311E-04 2.84599E+02 3.00000E-03
1.10000E+01 3.61676E-04 2.45621E+02 3.00000E-03
1.20000E+01 3.11968E-04 2.12000E+02 3.00000E-03
1.30000E+01 2.69096E-04 1.83000E+02 3.00000E-03
1.40000E+01 2.32120E-04 1.57985E+02 3.00000E-03
1.50000E+01 2.00228E-04 1.36406E+02 3.00000E-03
1.60000E+01 1.72720E-04 1.17793E+02 3.00000E-03
1.70000E+01 1.48994E-04 1.01736E+02 3.00000E-03
1.80000E+01 1.28529E-04 8.78856E+01 3.00000E-03
1.90000E+01 1.10877E-04 7.59370E+01 3.00000E-03
2.00000E+01 9.56504E-05 6.56294E+01 3.00000E-03
2.10000E+01 8.25165E-05 5.67373E+01 3.00000E-03
2.20000E+01 7.11871E-05 4.90660E+01 3.00000E-03
2.30000E+01 6.14143E-05 4.24480E+01 3.00000E-03
2.40000E+01 5.29839E-05 3.67385E+01 3.00000E-03
2.50000E+01 4.57116E-05 3.18126E+01 3.00000E-03
2.75000E+01 3.17487E-05 2.22492E+01 3.00000E-03
3.00000E+01 2.22213E-05 1.55737E+01 3.00000E-03
3.25000E+01 1.55533E-05 1.09013E+01 3.00000E-03
3.50000E+01 1.08864E-05 7.63095E+00 3.00000E-03
3.75000E+01 7.62007E-06 5.34187E+00 3.00000E-03
4.00000E+01 5.33387E-06 3.73958E+00 3.00000E-03
4.25000E+01 3.73366E-06 2.61801E+00 3.00000E-03
4.50000E+01 2.61359E-06 1.83291E+00 3.00000E-03
4.75000E+01 1.82958E-06 1.28333E+00 3.00000E-03
5.00000E+01 1.28078E-06 8.98604E-01 3.00000E-03
5.50000E+01 6.27692E-07 4.40734E-01 3.00000E-03
6.00000E+01 3.07651E-07 2.16330E-01 3.00000E-03
6.50000E+01 1.50802E-07 1.06338E-01 3.00000E-03
7.00000E+01 7.39255E-08 5.24208E-02 3.00000E-03
7.50000E+01 3.62425E-08 2.59888E-02 3.00000E-03
8.00000E+01 1.77696E-08 1.30299E-02 3.00000E-03
8.50000E+01 8.71314E-09 6.67592E-03 3.00000E-03
9.00000E+01 4.27274E-09 3.56021E-03 3.00000E-03
9.50000E+01 2.09543E-09 2.03228E-03 3.00000E-03
1.00000E+02 1.00000E-09 1.28292E-03 3.00000E-03
1.05000E+02 9.52381E-10 7.82920E-04 3.00000E-03
1.10000E+02 9.09091E-10 2.82920E-04 3.00000E-03
1.15000E+02 8.69565E-10 1.00000E-05 3.00000E-03
1.20000E+02 8.33333E-10 0.00000E+00 3.00000E-03
