# Atmospheric Model 54072104
# Col. #1          #2           #3            #4
# Alt [km]    rho [g/cm^3] thick [g/cm^2]    n-1
0.00000E+00 1.20504E-03 1.04934E+03 3.00000E-03
1.00000E+00 1.08822E-03 9.34780E+02 3.00000E-03
2.00000E+00 9.82732E-04 8.31322E+02 3.00000E-03
3.00000E+00 8.87480E-04 7.37892E+02 3.00000E-03
4.00000E+00 8.01137E-04 6.53524E+02 3.00000E-03
5.00000E+00 7.22663E-04 5.77401E+02 3.00000E-03
6.00000E+00 6.51881E-04 5.08735E+02 3.00000E-03
7.00000E+00 5.88038E-04 4.46794E+02 3.00000E-03
8.00000E+00 5.30452E-04 3.90919E+02 3.00000E-03
9.00000E+00 4.78510E-04 3.40515E+02 3.00000E-03
1.00000E+01 4.22398E-04 2.95309E+02 3.00000E-03
1.10000E+01 3.66123E-04 2.55950E+02 3.00000E-03
1.20000E+01 3.17348E-04 2.21834E+02 3.00000E-03
1.30000E+01 2.75072E-04 1.92264E+02 3.00000E-03
1.40000E+01 2.38430E-04 1.66632E+02 3.00000E-03
1.50000E+01 2.06670E-04 1.44415E+02 3.00000E-03
1.60000E+01 1.79143E-04 1.25157E+02 3.00000E-03
1.70000E+01 1.55282E-04 1.08465E+02 3.00000E-03
1.80000E+01 1.34601E-04 9.39950E+01 3.00000E-03
1.90000E+01 1.16675E-04 8.14526E+01 3.00000E-03
2.00000E+01 1.01137E-04 7.05804E+01 3.00000E-03
2.10000E+01 8.76694E-05 6.11561E+01 3.00000E-03
2.20000E+01 7.59953E-05 5.29868E+01 3.00000E-03
2.30000E+01 6.58763E-05 4.59053E+01 3.00000E-03
2.40000E+01 5.71050E-05 3.97666E+01 3.00000E-03
2.50000E+01 4.95020E-05 3.44453E+01 3.00000E-03
2.75000E+01 3.45996E-05 2.40404E+01 3.00000E-03
3.00000E+01 2.41416E-05 1.67760E+01 3.00000E-03
3.25000E+01 1.68453E-05 1.17072E+01 3.00000E-03
3.50000E+01 1.17546E-05 8.17033E+00 3.00000E-03
3.75000E+01 8.20263E-06 5.70226E+00 3.00000E-03
4.00000E+01 5.72423E-06 3.97994E+00 3.00000E-03
4.25000E+01 3.99482E-06 2.77799E+00 3.00000E-03
4.50000E+01 2.78802E-06 1.93916E+00 3.00000E-03
4.75000E+01 1.94586E-06 1.35373E+00 3.00000E-03
5.00000E+01 1.35813E-06 9.45124E-01 3.00000E-03
5.50000E+01 6.61695E-07 4.60862E-01 3.00000E-03
6.00000E+01 3.22434E-07 2.24908E-01 3.00000E-03
6.50000E+01 1.57141E-07 1.09924E-01 3.00000E-03
7.00000E+01 7.65962E-08 5.38816E-02 3.00000E-03
7.50000E+01 3.73414E-08 2.65627E-02 3.00000E-03
8.00000E+01 1.82071E-08 1.32435E-02 3.00000E-03
8.50000E+01 8.87881E-09 6.74888E-03 3.00000E-03
9.00000E+01 4.33047E-09 3.58151E-03 3.00000E-03
9.50000E+01 2.11242E-09 2.03659E-03 3.00000E-03
1.00000E+02 1.00000E-09 1.28292E-03 3.00000E-03
1.05000E+02 9.52381E-10 7.82920E-04 3.00000E-03
1.10000E+02 9.09091E-10 2.82920E-04 3.00000E-03
1.15000E+02 8.69565E-10 1.00000E-05 3.00000E-03
1.20000E+02 8.33333E-10 0.00000E+00 3.00000E-03
