# Atmospheric Model 5407202102
# Col. #1          #2           #3            #4
# Alt [km]    rho [g/cm^3] thick [g/cm^2]    n-1
0.00000E+00 1.18867E-03 1.04806E+03 3.00000E-03
1.00000E+00 1.07551E-03 9.34947E+02 3.00000E-03
2.00000E+00 9.73129E-04 8.32601E+02 3.00000E-03
3.00000E+00 8.80507E-04 7.39996E+02 3.00000E-03
4.00000E+00 7.96062E-04 6.56214E+02 3.00000E-03
5.00000E+00 7.18230E-04 5.80567E+02 3.00000E-03
6.00000E+00 6.48013E-04 5.12315E+02 3.00000E-03
7.00000E+00 5.84666E-04 4.50735E+02 3.00000E-03
8.00000E+00 5.27517E-04 3.95175E+02 3.00000E-03
9.00000E+00 4.75957E-04 3.45045E+02 3.00000E-03
1.00000E+01 4.21990E-04 2.99999E+02 3.00000E-03
1.10000E+01 3.66733E-04 2.60628E+02 3.00000E-03
1.20000E+01 3.18716E-04 2.26411E+02 3.00000E-03
1.30000E+01 2.76988E-04 1.96675E+02 3.00000E-03
1.40000E+01 2.40727E-04 1.70832E+02 3.00000E-03
1.50000E+01 2.09215E-04 1.48371E+02 3.00000E-03
1.60000E+01 1.81830E-04 1.28851E+02 3.00000E-03
1.70000E+01 1.58031E-04 1.11886E+02 3.00000E-03
1.80000E+01 1.37349E-04 9.71412E+01 3.00000E-03
1.90000E+01 1.19375E-04 8.43260E+01 3.00000E-03
2.00000E+01 1.03754E-04 7.31879E+01 3.00000E-03
2.10000E+01 9.01783E-05 6.35071E+01 3.00000E-03
2.20000E+01 7.83798E-05 5.50930E+01 3.00000E-03
2.30000E+01 6.81257E-05 4.77797E+01 3.00000E-03
2.40000E+01 5.92138E-05 4.14232E+01 3.00000E-03
2.50000E+01 5.14682E-05 3.58981E+01 3.00000E-03
2.75000E+01 3.61308E-05 2.50490E+01 3.00000E-03
3.00000E+01 2.51896E-05 1.74661E+01 3.00000E-03
3.25000E+01 1.75624E-05 1.21793E+01 3.00000E-03
3.50000E+01 1.22453E-05 8.49317E+00 3.00000E-03
3.75000E+01 8.53834E-06 5.92302E+00 3.00000E-03
4.00000E+01 5.95386E-06 4.13087E+00 3.00000E-03
4.25000E+01 4.15187E-06 2.88116E+00 3.00000E-03
4.50000E+01 2.89540E-06 2.00967E+00 3.00000E-03
4.75000E+01 2.01927E-06 1.40190E+00 3.00000E-03
5.00000E+01 1.40832E-06 9.78032E-01 3.00000E-03
5.50000E+01 6.85130E-07 4.76204E-01 3.00000E-03
6.00000E+01 3.33369E-07 2.32051E-01 3.00000E-03
6.50000E+01 1.62240E-07 1.13242E-01 3.00000E-03
7.00000E+01 7.89712E-08 5.54171E-02 3.00000E-03
7.50000E+01 3.84467E-08 2.72681E-02 3.00000E-03
8.00000E+01 1.87210E-08 1.35628E-02 3.00000E-03
8.50000E+01 9.11751E-09 6.88871E-03 3.00000E-03
9.00000E+01 4.44121E-09 3.63803E-03 3.00000E-03
9.50000E+01 2.16373E-09 2.05448E-03 3.00000E-03
1.00000E+02 1.00000E-09 1.28292E-03 3.00000E-03
1.05000E+02 9.52381E-10 7.82920E-04 3.00000E-03
1.10000E+02 9.09091E-10 2.82920E-04 3.00000E-03
1.15000E+02 8.69565E-10 1.00000E-05 3.00000E-03
1.20000E+02 8.33333E-10 0.00000E+00 3.00000E-03
