# Atmospheric Model 1101202101
# Col. #1          #2           #3            #4
# Alt [km]    rho [g/cm^3] thick [g/cm^2]    n-1
0.00000E+00 1.32846E-03 1.04271E+03 3.00000E-03
1.00000E+00 1.17805E-03 9.17534E+02 3.00000E-03
2.00000E+00 1.04474E-03 8.06528E+02 3.00000E-03
3.00000E+00 9.26569E-04 7.08082E+02 3.00000E-03
4.00000E+00 8.24740E-04 6.20700E+02 3.00000E-03
5.00000E+00 7.37259E-04 5.42682E+02 3.00000E-03
6.00000E+00 6.59083E-04 4.72938E+02 3.00000E-03
7.00000E+00 5.89220E-04 4.10589E+02 3.00000E-03
8.00000E+00 5.26783E-04 3.54847E+02 3.00000E-03
9.00000E+00 4.68597E-04 3.05041E+02 3.00000E-03
1.00000E+01 4.01729E-04 2.61591E+02 3.00000E-03
1.10000E+01 3.44082E-04 2.24375E+02 3.00000E-03
1.20000E+01 2.94712E-04 1.92499E+02 3.00000E-03
1.30000E+01 2.52429E-04 1.65197E+02 3.00000E-03
1.40000E+01 2.16217E-04 1.41811E+02 3.00000E-03
1.50000E+01 1.85202E-04 1.21780E+02 3.00000E-03
1.60000E+01 1.58639E-04 1.04623E+02 3.00000E-03
1.70000E+01 1.35888E-04 8.99256E+01 3.00000E-03
1.80000E+01 1.16402E-04 7.73362E+01 3.00000E-03
1.90000E+01 9.97113E-05 6.65521E+01 3.00000E-03
2.00000E+01 8.54156E-05 5.73142E+01 3.00000E-03
2.10000E+01 7.31706E-05 4.94007E+01 3.00000E-03
2.20000E+01 6.26822E-05 4.26216E+01 3.00000E-03
2.30000E+01 5.36981E-05 3.68142E+01 3.00000E-03
2.40000E+01 4.60024E-05 3.18391E+01 3.00000E-03
2.50000E+01 3.94103E-05 2.75769E+01 3.00000E-03
2.75000E+01 2.72671E-05 1.93702E+01 3.00000E-03
3.00000E+01 1.91775E-05 1.36238E+01 3.00000E-03
3.25000E+01 1.34879E-05 9.58229E+00 3.00000E-03
3.50000E+01 9.48644E-06 6.73977E+00 3.00000E-03
3.75000E+01 6.67211E-06 4.74054E+00 3.00000E-03
4.00000E+01 4.69274E-06 3.33442E+00 3.00000E-03
4.25000E+01 3.30059E-06 2.34544E+00 3.00000E-03
4.50000E+01 2.32145E-06 1.64985E+00 3.00000E-03
4.75000E+01 1.63279E-06 1.16061E+00 3.00000E-03
5.00000E+01 1.14843E-06 8.16498E-01 3.00000E-03
5.50000E+01 5.68144E-07 4.04233E-01 3.00000E-03
6.00000E+01 2.81076E-07 2.00278E-01 3.00000E-03
6.50000E+01 1.39059E-07 9.93743E-02 3.00000E-03
7.00000E+01 6.87997E-08 4.94529E-02 3.00000E-03
7.50000E+01 3.40396E-08 2.47540E-02 3.00000E-03
8.00000E+01 1.68419E-08 1.25337E-02 3.00000E-03
8.50000E+01 8.33318E-09 6.48739E-03 3.00000E-03
9.00000E+01 4.12326E-09 3.49570E-03 3.00000E-03
9.50000E+01 2.04024E-09 2.01540E-03 3.00000E-03
1.00000E+02 1.00000E-09 1.28292E-03 3.00000E-03
1.05000E+02 9.52381E-10 7.82920E-04 3.00000E-03
1.10000E+02 9.09091E-10 2.82920E-04 3.00000E-03
1.15000E+02 8.69565E-10 1.00000E-05 3.00000E-03
1.20000E+02 8.33333E-10 0.00000E+00 3.00000E-03
