# Atmospheric Model 1101202108
# Col. #1          #2           #3            #4
# Alt [km]    rho [g/cm^3] thick [g/cm^2]    n-1
0.00000E+00 1.19475E-03 1.04991E+03 3.00000E-03
1.00000E+00 1.08109E-03 9.36213E+02 3.00000E-03
2.00000E+00 9.78253E-04 8.33331E+02 3.00000E-03
3.00000E+00 8.85202E-04 7.40236E+02 3.00000E-03
4.00000E+00 7.99702E-04 6.56014E+02 3.00000E-03
5.00000E+00 7.19342E-04 5.80133E+02 3.00000E-03
6.00000E+00 6.47060E-04 5.11877E+02 3.00000E-03
7.00000E+00 5.82043E-04 4.50479E+02 3.00000E-03
8.00000E+00 5.23562E-04 3.95250E+02 3.00000E-03
9.00000E+00 4.70959E-04 3.45571E+02 3.00000E-03
1.00000E+01 4.17636E-04 3.01026E+02 3.00000E-03
1.10000E+01 3.63723E-04 2.62020E+02 3.00000E-03
1.20000E+01 3.16775E-04 2.28050E+02 3.00000E-03
1.30000E+01 2.75891E-04 1.98463E+02 3.00000E-03
1.40000E+01 2.40288E-04 1.72696E+02 3.00000E-03
1.50000E+01 2.09284E-04 1.50253E+02 3.00000E-03
1.60000E+01 1.82283E-04 1.30705E+02 3.00000E-03
1.70000E+01 1.58768E-04 1.13680E+02 3.00000E-03
1.80000E+01 1.38289E-04 9.88507E+01 3.00000E-03
1.90000E+01 1.20453E-04 8.59342E+01 3.00000E-03
2.00000E+01 1.04920E-04 7.46834E+01 3.00000E-03
2.10000E+01 9.13914E-05 6.48834E+01 3.00000E-03
2.20000E+01 7.96084E-05 5.63469E+01 3.00000E-03
2.30000E+01 6.93458E-05 4.89110E+01 3.00000E-03
2.40000E+01 6.04072E-05 4.24337E+01 3.00000E-03
2.50000E+01 5.26216E-05 3.67912E+01 3.00000E-03
2.75000E+01 3.71519E-05 2.56676E+01 3.00000E-03
3.00000E+01 2.58685E-05 1.78750E+01 3.00000E-03
3.25000E+01 1.80130E-05 1.24489E+01 3.00000E-03
3.50000E+01 1.25436E-05 8.67051E+00 3.00000E-03
3.75000E+01 8.73547E-06 6.03928E+00 3.00000E-03
4.00000E+01 6.08377E-06 4.20682E+00 3.00000E-03
4.25000E+01 4.23724E-06 2.93059E+00 3.00000E-03
4.50000E+01 2.95133E-06 2.04169E+00 3.00000E-03
4.75000E+01 2.05577E-06 1.42254E+00 3.00000E-03
5.00000E+01 1.43204E-06 9.91249E-01 3.00000E-03
5.50000E+01 6.95006E-07 4.81506E-01 3.00000E-03
6.00000E+01 3.37376E-07 2.34092E-01 3.00000E-03
6.50000E+01 1.63807E-07 1.13978E-01 3.00000E-03
7.00000E+01 7.95507E-08 5.56536E-02 3.00000E-03
7.50000E+01 3.86407E-08 2.73265E-02 3.00000E-03
8.00000E+01 1.87731E-08 1.35657E-02 3.00000E-03
8.50000E+01 9.12259E-09 6.87958E-03 3.00000E-03
9.00000E+01 4.43392E-09 3.63025E-03 3.00000E-03
9.50000E+01 2.15549E-09 2.05081E-03 3.00000E-03
1.00000E+02 1.00000E-09 1.28292E-03 3.00000E-03
1.05000E+02 9.52381E-10 7.82920E-04 3.00000E-03
1.10000E+02 9.09091E-10 2.82920E-04 3.00000E-03
1.15000E+02 8.69565E-10 1.00000E-05 3.00000E-03
1.20000E+02 8.33333E-10 0.00000E+00 3.00000E-03
