# Atmospheric Model 1101202106
# Col. #1          #2           #3            #4
# Alt [km]    rho [g/cm^3] thick [g/cm^2]    n-1
0.00000E+00 1.20814E-03 1.04586E+03 3.00000E-03
1.00000E+00 1.09034E-03 9.31032E+02 3.00000E-03
2.00000E+00 9.84035E-04 8.27405E+02 3.00000E-03
3.00000E+00 8.88102E-04 7.33880E+02 3.00000E-03
4.00000E+00 8.00526E-04 6.49491E+02 3.00000E-03
5.00000E+00 7.19943E-04 5.73539E+02 3.00000E-03
6.00000E+00 6.47478E-04 5.05232E+02 3.00000E-03
7.00000E+00 5.82310E-04 4.43800E+02 3.00000E-03
8.00000E+00 5.23706E-04 3.88551E+02 3.00000E-03
9.00000E+00 4.71004E-04 3.38862E+02 3.00000E-03
1.00000E+01 4.15424E-04 2.94425E+02 3.00000E-03
1.10000E+01 3.60808E-04 2.55678E+02 3.00000E-03
1.20000E+01 3.13381E-04 2.22024E+02 3.00000E-03
1.30000E+01 2.72195E-04 1.92794E+02 3.00000E-03
1.40000E+01 2.36427E-04 1.67405E+02 3.00000E-03
1.50000E+01 2.05365E-04 1.45352E+02 3.00000E-03
1.60000E+01 1.78388E-04 1.26196E+02 3.00000E-03
1.70000E+01 1.54959E-04 1.09556E+02 3.00000E-03
1.80000E+01 1.34610E-04 9.51013E+01 3.00000E-03
1.90000E+01 1.16937E-04 8.25447E+01 3.00000E-03
2.00000E+01 1.01586E-04 7.16365E+01 3.00000E-03
2.10000E+01 8.82527E-05 6.21603E+01 3.00000E-03
2.20000E+01 7.66713E-05 5.39276E+01 3.00000E-03
2.30000E+01 6.66114E-05 4.67753E+01 3.00000E-03
2.40000E+01 5.78728E-05 4.05614E+01 3.00000E-03
2.50000E+01 5.02818E-05 3.51625E+01 3.00000E-03
2.75000E+01 3.53235E-05 2.45649E+01 3.00000E-03
3.00000E+01 2.46547E-05 1.71474E+01 3.00000E-03
3.25000E+01 1.72088E-05 1.19702E+01 3.00000E-03
3.50000E+01 1.20121E-05 8.35642E+00 3.00000E-03
3.75000E+01 8.38497E-06 5.83390E+00 3.00000E-03
4.00000E+01 5.85329E-06 4.07304E+00 3.00000E-03
4.25000E+01 4.08616E-06 2.84382E+00 3.00000E-03
4.50000E+01 2.85263E-06 1.98569E+00 3.00000E-03
4.75000E+01 1.99155E-06 1.38660E+00 3.00000E-03
5.00000E+01 1.39044E-06 9.68340E-01 3.00000E-03
5.50000E+01 6.77831E-07 4.72430E-01 3.00000E-03
6.00000E+01 3.30485E-07 2.30662E-01 3.00000E-03
6.50000E+01 1.61154E-07 1.12778E-01 3.00000E-03
7.00000E+01 7.85947E-08 5.52902E-02 3.00000E-03
7.50000E+01 3.83357E-08 2.72519E-02 3.00000E-03
8.00000E+01 1.87014E-08 1.35751E-02 3.00000E-03
8.50000E+01 9.12433E-09 6.90266E-03 3.00000E-03
9.00000E+01 4.45233E-09 3.64702E-03 3.00000E-03
9.50000E+01 2.17285E-09 2.05830E-03 3.00000E-03
1.00000E+02 1.00000E-09 1.28292E-03 3.00000E-03
1.05000E+02 9.52381E-10 7.82920E-04 3.00000E-03
1.10000E+02 9.09091E-10 2.82920E-04 3.00000E-03
1.15000E+02 8.69565E-10 1.00000E-05 3.00000E-03
1.20000E+02 8.33333E-10 0.00000E+00 3.00000E-03
