# Atmospheric Model 1101202102
# Col. #1          #2           #3            #4
# Alt [km]    rho [g/cm^3] thick [g/cm^2]    n-1
0.00000E+00 1.34245E-03 1.04549E+03 3.00000E-03
1.00000E+00 1.19299E-03 9.18864E+02 3.00000E-03
2.00000E+00 1.06024E-03 8.06333E+02 3.00000E-03
3.00000E+00 9.42326E-04 7.06321E+02 3.00000E-03
4.00000E+00 8.36888E-04 6.17467E+02 3.00000E-03
5.00000E+00 7.43609E-04 5.38534E+02 3.00000E-03
6.00000E+00 6.60763E-04 4.68397E+02 3.00000E-03
7.00000E+00 5.87181E-04 4.06073E+02 3.00000E-03
8.00000E+00 5.21822E-04 3.50687E+02 3.00000E-03
9.00000E+00 4.60709E-04 3.01507E+02 3.00000E-03
1.00000E+01 3.94996E-04 2.58805E+02 3.00000E-03
1.10000E+01 3.38648E-04 2.22195E+02 3.00000E-03
1.20000E+01 2.90347E-04 1.90807E+02 3.00000E-03
1.30000E+01 2.48941E-04 1.63896E+02 3.00000E-03
1.40000E+01 2.13445E-04 1.40822E+02 3.00000E-03
1.50000E+01 1.83016E-04 1.21038E+02 3.00000E-03
1.60000E+01 1.56928E-04 1.04075E+02 3.00000E-03
1.70000E+01 1.34563E-04 8.95287E+01 3.00000E-03
1.80000E+01 1.15388E-04 7.70557E+01 3.00000E-03
1.90000E+01 9.89487E-05 6.63599E+01 3.00000E-03
2.00000E+01 8.48535E-05 5.71878E+01 3.00000E-03
2.10000E+01 7.27680E-05 4.93223E+01 3.00000E-03
2.20000E+01 6.24056E-05 4.25768E+01 3.00000E-03
2.30000E+01 5.35202E-05 3.67919E+01 3.00000E-03
2.40000E+01 4.59012E-05 3.18306E+01 3.00000E-03
2.50000E+01 3.93678E-05 2.75756E+01 3.00000E-03
2.75000E+01 2.73085E-05 1.93639E+01 3.00000E-03
3.00000E+01 1.91937E-05 1.36106E+01 3.00000E-03
3.25000E+01 1.34904E-05 9.56695E+00 3.00000E-03
3.50000E+01 9.48199E-06 6.72478E+00 3.00000E-03
3.75000E+01 6.66471E-06 4.72710E+00 3.00000E-03
4.00000E+01 4.68456E-06 3.32296E+00 3.00000E-03
4.25000E+01 3.29279E-06 2.33599E+00 3.00000E-03
4.50000E+01 2.31455E-06 1.64224E+00 3.00000E-03
4.75000E+01 1.62695E-06 1.15459E+00 3.00000E-03
5.00000E+01 1.14364E-06 8.11812E-01 3.00000E-03
5.50000E+01 5.65122E-07 4.01476E-01 3.00000E-03
6.00000E+01 2.79267E-07 1.98706E-01 3.00000E-03
6.50000E+01 1.38014E-07 9.85006E-02 3.00000E-03
7.00000E+01 6.82109E-08 4.89774E-02 3.00000E-03
7.50000E+01 3.37139E-08 2.45010E-02 3.00000E-03
8.00000E+01 1.66644E-08 1.24029E-02 3.00000E-03
8.50000E+01 8.23746E-09 6.42287E-03 3.00000E-03
9.00000E+01 4.07213E-09 3.46676E-03 3.00000E-03
9.50000E+01 2.01314E-09 2.00539E-03 3.00000E-03
1.00000E+02 1.00000E-09 1.28292E-03 3.00000E-03
1.05000E+02 9.52381E-10 7.82920E-04 3.00000E-03
1.10000E+02 9.09091E-10 2.82920E-04 3.00000E-03
1.15000E+02 8.69565E-10 1.00000E-05 3.00000E-03
1.20000E+02 8.33333E-10 0.00000E+00 3.00000E-03
