# Atmospheric Model 54062107
# Col. #1          #2           #3            #4
# Alt [km]    rho [g/cm^3] thick [g/cm^2]    n-1
0.00000E+00 1.22846E-03 1.05583E+03 3.00000E-03
1.00000E+00 1.11153E-03 9.38925E+02 3.00000E-03
2.00000E+00 1.00574E-03 8.33150E+02 3.00000E-03
3.00000E+00 9.10013E-04 7.37442E+02 3.00000E-03
4.00000E+00 8.21240E-04 6.50877E+02 3.00000E-03
5.00000E+00 7.36692E-04 5.73057E+02 3.00000E-03
6.00000E+00 6.60854E-04 5.03248E+02 3.00000E-03
7.00000E+00 5.92828E-04 4.40626E+02 3.00000E-03
8.00000E+00 5.31809E-04 3.84449E+02 3.00000E-03
9.00000E+00 4.77075E-04 3.34055E+02 3.00000E-03
1.00000E+01 4.17906E-04 2.89197E+02 3.00000E-03
1.10000E+01 3.61590E-04 2.50290E+02 3.00000E-03
1.20000E+01 3.12870E-04 2.16626E+02 3.00000E-03
1.30000E+01 2.70719E-04 1.87498E+02 3.00000E-03
1.40000E+01 2.34252E-04 1.62293E+02 3.00000E-03
1.50000E+01 2.02702E-04 1.40483E+02 3.00000E-03
1.60000E+01 1.75405E-04 1.21611E+02 3.00000E-03
1.70000E+01 1.51786E-04 1.05280E+02 3.00000E-03
1.80000E+01 1.31351E-04 9.11477E+01 3.00000E-03
1.90000E+01 1.13669E-04 7.89180E+01 3.00000E-03
2.00000E+01 9.83700E-05 6.83345E+01 3.00000E-03
2.10000E+01 8.51315E-05 5.91753E+01 3.00000E-03
2.20000E+01 7.36762E-05 5.12488E+01 3.00000E-03
2.30000E+01 6.37636E-05 4.43887E+01 3.00000E-03
2.40000E+01 5.51858E-05 3.84516E+01 3.00000E-03
2.50000E+01 4.77629E-05 3.33131E+01 3.00000E-03
2.75000E+01 3.33351E-05 2.32876E+01 3.00000E-03
3.00000E+01 2.33055E-05 1.62822E+01 3.00000E-03
3.25000E+01 1.62939E-05 1.13844E+01 3.00000E-03
3.50000E+01 1.13920E-05 7.96018E+00 3.00000E-03
3.75000E+01 7.96498E-06 5.56606E+00 3.00000E-03
4.00000E+01 5.56903E-06 3.89214E+00 3.00000E-03
4.25000E+01 3.89389E-06 2.72173E+00 3.00000E-03
4.50000E+01 2.72269E-06 1.90337E+00 3.00000E-03
4.75000E+01 1.90380E-06 1.33115E+00 3.00000E-03
5.00000E+01 1.33124E-06 9.31033E-01 3.00000E-03
5.50000E+01 6.50953E-07 4.55597E-01 3.00000E-03
6.00000E+01 3.18333E-07 2.23108E-01 3.00000E-03
6.50000E+01 1.55687E-07 1.09410E-01 3.00000E-03
7.00000E+01 7.61479E-08 5.38019E-02 3.00000E-03
7.50000E+01 3.72479E-08 2.66024E-02 3.00000E-03
8.00000E+01 1.82214E-08 1.32972E-02 3.00000E-03
8.50000E+01 8.91455E-09 6.78815E-03 3.00000E-03
9.00000E+01 4.36167E-09 3.60358E-03 3.00000E-03
9.50000E+01 2.13423E-09 2.04539E-03 3.00000E-03
1.00000E+02 1.00000E-09 1.28292E-03 3.00000E-03
1.05000E+02 9.52381E-10 7.82920E-04 3.00000E-03
1.10000E+02 9.09091E-10 2.82920E-04 3.00000E-03
1.15000E+02 8.69565E-10 1.00000E-05 3.00000E-03
1.20000E+02 8.33333E-10 0.00000E+00 3.00000E-03
