# Atmospheric Model 54062101
# Col. #1          #2           #3            #4
# Alt [km]    rho [g/cm^3] thick [g/cm^2]    n-1
0.00000E+00 1.16720E-03 1.04348E+03 3.00000E-03
1.00000E+00 1.06064E-03 9.32171E+02 3.00000E-03
2.00000E+00 9.63805E-04 8.31026E+02 3.00000E-03
3.00000E+00 8.75813E-04 7.39115E+02 3.00000E-03
4.00000E+00 7.94387E-04 6.55617E+02 3.00000E-03
5.00000E+00 7.17038E-04 5.80111E+02 3.00000E-03
6.00000E+00 6.47225E-04 5.11958E+02 3.00000E-03
7.00000E+00 5.84213E-04 4.50440E+02 3.00000E-03
8.00000E+00 5.27338E-04 3.94911E+02 3.00000E-03
9.00000E+00 4.76004E-04 3.44788E+02 3.00000E-03
1.00000E+01 4.21969E-04 2.99737E+02 3.00000E-03
1.10000E+01 3.66669E-04 2.60370E+02 3.00000E-03
1.20000E+01 3.18620E-04 2.26162E+02 3.00000E-03
1.30000E+01 2.76870E-04 1.96436E+02 3.00000E-03
1.40000E+01 2.40593E-04 1.70605E+02 3.00000E-03
1.50000E+01 2.09072E-04 1.48159E+02 3.00000E-03
1.60000E+01 1.81682E-04 1.28653E+02 3.00000E-03
1.70000E+01 1.57882E-04 1.11703E+02 3.00000E-03
1.80000E+01 1.37201E-04 9.69732E+01 3.00000E-03
1.90000E+01 1.19230E-04 8.41727E+01 3.00000E-03
2.00000E+01 1.03614E-04 7.30487E+01 3.00000E-03
2.10000E+01 9.00448E-05 6.33816E+01 3.00000E-03
2.20000E+01 7.82531E-05 5.49805E+01 3.00000E-03
2.30000E+01 6.80062E-05 4.76795E+01 3.00000E-03
2.40000E+01 5.91017E-05 4.13346E+01 3.00000E-03
2.50000E+01 5.13636E-05 3.58203E+01 3.00000E-03
2.75000E+01 3.60382E-05 2.49960E+01 3.00000E-03
3.00000E+01 2.51294E-05 1.74319E+01 3.00000E-03
3.25000E+01 1.75234E-05 1.21573E+01 3.00000E-03
3.50000E+01 1.22200E-05 8.47911E+00 3.00000E-03
3.75000E+01 8.52208E-06 5.91406E+00 3.00000E-03
4.00000E+01 5.94343E-06 4.12520E+00 3.00000E-03
4.25000E+01 4.14521E-06 2.87759E+00 3.00000E-03
4.50000E+01 2.89117E-06 2.00744E+00 3.00000E-03
4.75000E+01 2.01660E-06 1.40052E+00 3.00000E-03
5.00000E+01 1.40664E-06 9.77184E-01 3.00000E-03
5.50000E+01 6.84485E-07 4.75898E-01 3.00000E-03
6.00000E+01 3.33132E-07 2.31949E-01 3.00000E-03
6.50000E+01 1.62159E-07 1.13213E-01 3.00000E-03
7.00000E+01 7.89471E-08 5.54119E-02 3.00000E-03
7.50000E+01 3.84417E-08 2.72693E-02 3.00000E-03
8.00000E+01 1.87214E-08 1.35649E-02 3.00000E-03
8.50000E+01 9.11894E-09 6.89021E-03 3.00000E-03
9.00000E+01 4.44242E-09 3.63885E-03 3.00000E-03
9.50000E+01 2.16453E-09 2.05479E-03 3.00000E-03
1.00000E+02 1.00000E-09 1.28292E-03 3.00000E-03
1.05000E+02 9.52381E-10 7.82920E-04 3.00000E-03
1.10000E+02 9.09091E-10 2.82920E-04 3.00000E-03
1.15000E+02 8.69565E-10 1.00000E-05 3.00000E-03
1.20000E+02 8.33333E-10 0.00000E+00 3.00000E-03
