# Atmospheric Model 54062103
# Col. #1          #2           #3            #4
# Alt [km]    rho [g/cm^3] thick [g/cm^2]    n-1
0.00000E+00 1.17467E-03 1.04624E+03 3.00000E-03
1.00000E+00 1.06733E-03 9.34229E+02 3.00000E-03
2.00000E+00 9.69800E-04 8.32450E+02 3.00000E-03
3.00000E+00 8.81182E-04 7.39972E+02 3.00000E-03
4.00000E+00 7.99128E-04 6.55965E+02 3.00000E-03
5.00000E+00 7.20896E-04 5.80031E+02 3.00000E-03
6.00000E+00 6.50327E-04 5.11530E+02 3.00000E-03
7.00000E+00 5.86671E-04 4.49735E+02 3.00000E-03
8.00000E+00 5.29249E-04 3.93989E+02 3.00000E-03
9.00000E+00 4.77451E-04 3.43698E+02 3.00000E-03
1.00000E+01 4.22565E-04 2.98548E+02 3.00000E-03
1.10000E+01 3.66848E-04 2.59143E+02 3.00000E-03
1.20000E+01 3.18482E-04 2.24933E+02 3.00000E-03
1.30000E+01 2.76496E-04 1.95234E+02 3.00000E-03
1.40000E+01 2.40049E-04 1.69449E+02 3.00000E-03
1.50000E+01 2.08410E-04 1.47064E+02 3.00000E-03
1.60000E+01 1.80943E-04 1.27629E+02 3.00000E-03
1.70000E+01 1.57098E-04 1.10755E+02 3.00000E-03
1.80000E+01 1.36398E-04 9.61042E+01 3.00000E-03
1.90000E+01 1.18427E-04 8.33841E+01 3.00000E-03
2.00000E+01 1.02825E-04 7.23399E+01 3.00000E-03
2.10000E+01 8.92799E-05 6.27506E+01 3.00000E-03
2.20000E+01 7.75202E-05 5.44245E+01 3.00000E-03
2.30000E+01 6.73105E-05 4.71950E+01 3.00000E-03
2.40000E+01 5.84462E-05 4.09176E+01 3.00000E-03
2.50000E+01 5.07501E-05 3.54668E+01 3.00000E-03
2.75000E+01 3.55871E-05 2.47795E+01 3.00000E-03
3.00000E+01 2.48503E-05 1.73050E+01 3.00000E-03
3.25000E+01 1.73534E-05 1.20855E+01 3.00000E-03
3.50000E+01 1.21186E-05 8.44060E+00 3.00000E-03
3.75000E+01 8.46308E-06 5.89519E+00 3.00000E-03
4.00000E+01 5.91043E-06 4.11755E+00 3.00000E-03
4.25000E+01 4.12783E-06 2.87608E+00 3.00000E-03
4.50000E+01 2.88295E-06 2.00902E+00 3.00000E-03
4.75000E+01 2.01356E-06 1.40344E+00 3.00000E-03
5.00000E+01 1.40638E-06 9.80483E-01 3.00000E-03
5.50000E+01 6.86152E-07 4.78708E-01 3.00000E-03
6.00000E+01 3.34801E-07 2.33888E-01 3.00000E-03
6.50000E+01 1.63381E-07 1.14425E-01 3.00000E-03
7.00000E+01 7.97378E-08 5.61243E-02 3.00000E-03
7.50000E+01 3.89203E-08 2.76695E-02 3.00000E-03
8.00000E+01 1.89992E-08 1.37800E-02 3.00000E-03
8.50000E+01 9.27565E-09 6.99937E-03 3.00000E-03
9.00000E+01 4.52898E-09 3.68883E-03 3.00000E-03
9.50000E+01 2.21159E-09 2.07233E-03 3.00000E-03
1.00000E+02 1.00000E-09 1.28292E-03 3.00000E-03
1.05000E+02 9.52381E-10 7.82920E-04 3.00000E-03
1.10000E+02 9.09091E-10 2.82920E-04 3.00000E-03
1.15000E+02 8.69565E-10 1.00000E-05 3.00000E-03
1.20000E+02 8.33333E-10 0.00000E+00 3.00000E-03
