# Atmospheric Model 5406202108
# Col. #1          #2           #3            #4
# Alt [km]    rho [g/cm^3] thick [g/cm^2]    n-1
0.00000E+00 1.22624E-03 1.05096E+03 3.00000E-03
1.00000E+00 1.11023E-03 9.34229E+02 3.00000E-03
2.00000E+00 1.00520E-03 8.28544E+02 3.00000E-03
3.00000E+00 9.10112E-04 7.32857E+02 3.00000E-03
4.00000E+00 8.21332E-04 6.46269E+02 3.00000E-03
5.00000E+00 7.36536E-04 5.68453E+02 3.00000E-03
6.00000E+00 6.60504E-04 4.98670E+02 3.00000E-03
7.00000E+00 5.92328E-04 4.36090E+02 3.00000E-03
8.00000E+00 5.31197E-04 3.79969E+02 3.00000E-03
9.00000E+00 4.76381E-04 3.29640E+02 3.00000E-03
1.00000E+01 4.16084E-04 2.84926E+02 3.00000E-03
1.10000E+01 3.59398E-04 2.46221E+02 3.00000E-03
1.20000E+01 3.10441E-04 2.12788E+02 3.00000E-03
1.30000E+01 2.68158E-04 1.83910E+02 3.00000E-03
1.40000E+01 2.31639E-04 1.58965E+02 3.00000E-03
1.50000E+01 2.00097E-04 1.37417E+02 3.00000E-03
1.60000E+01 1.72853E-04 1.18802E+02 3.00000E-03
1.70000E+01 1.49321E-04 1.02722E+02 3.00000E-03
1.80000E+01 1.28996E-04 8.88312E+01 3.00000E-03
1.90000E+01 1.11439E-04 7.68309E+01 3.00000E-03
2.00000E+01 9.62739E-05 6.64637E+01 3.00000E-03
2.10000E+01 8.31740E-05 5.75073E+01 3.00000E-03
2.20000E+01 7.18580E-05 4.97695E+01 3.00000E-03
2.30000E+01 6.20827E-05 4.30844E+01 3.00000E-03
2.40000E+01 5.36383E-05 3.73086E+01 3.00000E-03
2.50000E+01 4.63434E-05 3.23185E+01 3.00000E-03
2.75000E+01 3.22621E-05 2.26083E+01 3.00000E-03
3.00000E+01 2.25801E-05 1.58249E+01 3.00000E-03
3.25000E+01 1.58042E-05 1.10771E+01 3.00000E-03
3.50000E+01 1.10619E-05 7.75401E+00 3.00000E-03
3.75000E+01 7.74286E-06 5.42803E+00 3.00000E-03
4.00000E+01 5.41981E-06 3.79993E+00 3.00000E-03
4.25000E+01 3.79383E-06 2.66029E+00 3.00000E-03
4.50000E+01 2.65572E-06 1.86253E+00 3.00000E-03
4.75000E+01 1.85909E-06 1.30409E+00 3.00000E-03
5.00000E+01 1.30145E-06 9.13156E-01 3.00000E-03
5.50000E+01 6.37850E-07 4.47887E-01 3.00000E-03
6.00000E+01 3.12647E-07 2.19846E-01 3.00000E-03
6.50000E+01 1.53262E-07 1.08064E-01 3.00000E-03
7.00000E+01 7.51373E-08 5.32661E-02 3.00000E-03
7.50000E+01 3.68401E-08 2.63998E-02 3.00000E-03
8.00000E+01 1.80645E-08 1.32266E-02 3.00000E-03
8.50000E+01 8.85879E-09 6.76680E-03 3.00000E-03
9.00000E+01 4.34473E-09 3.59883E-03 3.00000E-03
9.50000E+01 2.13103E-09 2.04506E-03 3.00000E-03
1.00000E+02 1.00000E-09 1.28292E-03 3.00000E-03
1.05000E+02 9.52381E-10 7.82920E-04 3.00000E-03
1.10000E+02 9.09091E-10 2.82920E-04 3.00000E-03
1.15000E+02 8.69565E-10 1.00000E-05 3.00000E-03
1.20000E+02 8.33333E-10 0.00000E+00 3.00000E-03
