# Atmospheric Model 5801202102
# Col. #1          #2           #3            #4
# Alt [km]    rho [g/cm^3] thick [g/cm^2]    n-1
0.00000E+00 1.17541E-03 1.06038E+03 3.00000E-03
1.00000E+00 1.06658E-03 9.48368E+02 3.00000E-03
2.00000E+00 9.67843E-04 8.46727E+02 3.00000E-03
3.00000E+00 8.78259E-04 7.54494E+02 3.00000E-03
4.00000E+00 7.95264E-04 6.70817E+02 3.00000E-03
5.00000E+00 7.14619E-04 5.95395E+02 3.00000E-03
6.00000E+00 6.42154E-04 5.27621E+02 3.00000E-03
7.00000E+00 5.77039E-04 4.66719E+02 3.00000E-03
8.00000E+00 5.18528E-04 4.11993E+02 3.00000E-03
9.00000E+00 4.65952E-04 3.62816E+02 3.00000E-03
1.00000E+01 4.16304E-04 3.18657E+02 3.00000E-03
1.10000E+01 3.66034E-04 2.79594E+02 3.00000E-03
1.20000E+01 3.21834E-04 2.45248E+02 3.00000E-03
1.30000E+01 2.82972E-04 2.15049E+02 3.00000E-03
1.40000E+01 2.48803E-04 1.88497E+02 3.00000E-03
1.50000E+01 2.18761E-04 1.65151E+02 3.00000E-03
1.60000E+01 1.92346E-04 1.44624E+02 3.00000E-03
1.70000E+01 1.69121E-04 1.26576E+02 3.00000E-03
1.80000E+01 1.48700E-04 1.10707E+02 3.00000E-03
1.90000E+01 1.30745E-04 9.67536E+01 3.00000E-03
2.00000E+01 1.14959E-04 8.44853E+01 3.00000E-03
2.10000E+01 1.01078E-04 7.36983E+01 3.00000E-03
2.20000E+01 8.88741E-05 6.42138E+01 3.00000E-03
2.30000E+01 7.81434E-05 5.58744E+01 3.00000E-03
2.40000E+01 6.87085E-05 4.85419E+01 3.00000E-03
2.50000E+01 6.04128E-05 4.20947E+01 3.00000E-03
2.75000E+01 4.29468E-05 2.92273E+01 3.00000E-03
3.00000E+01 2.97344E-05 2.02432E+01 3.00000E-03
3.25000E+01 2.05895E-05 1.40227E+01 3.00000E-03
3.50000E+01 1.42591E-05 9.71498E+00 3.00000E-03
3.75000E+01 9.87634E-06 6.73154E+00 3.00000E-03
4.00000E+01 6.84162E-06 4.66498E+00 3.00000E-03
4.25000E+01 4.74001E-06 3.23332E+00 3.00000E-03
4.50000E+01 3.28442E-06 2.24138E+00 3.00000E-03
4.75000E+01 2.27611E-06 1.55401E+00 3.00000E-03
5.00000E+01 1.57756E-06 1.07762E+00 3.00000E-03
5.50000E+01 7.58129E-07 5.18524E-01 3.00000E-03
6.00000E+01 3.64522E-07 2.49776E-01 3.00000E-03
6.50000E+01 1.75358E-07 1.20528E-01 3.00000E-03
7.00000E+01 8.44013E-08 5.83375E-02 3.00000E-03
7.50000E+01 4.06432E-08 2.83982E-02 3.00000E-03
8.00000E+01 1.95813E-08 1.39779E-02 3.00000E-03
8.50000E+01 9.43853E-09 7.02897E-03 3.00000E-03
9.00000E+01 4.55172E-09 3.67874E-03 3.00000E-03
9.50000E+01 2.19610E-09 2.06275E-03 3.00000E-03
1.00000E+02 1.00000E-09 1.28292E-03 3.00000E-03
1.05000E+02 9.52381E-10 7.82920E-04 3.00000E-03
1.10000E+02 9.09091E-10 2.82920E-04 3.00000E-03
1.15000E+02 8.69565E-10 1.00000E-05 3.00000E-03
1.20000E+02 8.33333E-10 0.00000E+00 3.00000E-03
