# Atmospheric Model 5801202106
# Col. #1          #2           #3            #4
# Alt [km]    rho [g/cm^3] thick [g/cm^2]    n-1
0.00000E+00 1.16963E-03 1.06006E+03 3.00000E-03
1.00000E+00 1.06275E-03 9.48521E+02 3.00000E-03
2.00000E+00 9.65653E-04 8.47179E+02 3.00000E-03
3.00000E+00 8.77435E-04 7.55095E+02 3.00000E-03
4.00000E+00 7.95674E-04 6.71439E+02 3.00000E-03
5.00000E+00 7.15761E-04 5.95938E+02 3.00000E-03
6.00000E+00 6.43875E-04 5.28020E+02 3.00000E-03
7.00000E+00 5.79209E-04 4.66922E+02 3.00000E-03
8.00000E+00 5.21039E-04 4.11961E+02 3.00000E-03
9.00000E+00 4.68712E-04 3.62520E+02 3.00000E-03
1.00000E+01 4.19066E-04 3.18077E+02 3.00000E-03
1.10000E+01 3.67981E-04 2.78780E+02 3.00000E-03
1.20000E+01 3.23123E-04 2.44273E+02 3.00000E-03
1.30000E+01 2.83734E-04 2.13973E+02 3.00000E-03
1.40000E+01 2.49147E-04 1.87366E+02 3.00000E-03
1.50000E+01 2.18776E-04 1.64003E+02 3.00000E-03
1.60000E+01 1.92108E-04 1.43488E+02 3.00000E-03
1.70000E+01 1.68690E-04 1.25473E+02 3.00000E-03
1.80000E+01 1.48127E-04 1.09655E+02 3.00000E-03
1.90000E+01 1.30071E-04 9.57642E+01 3.00000E-03
2.00000E+01 1.14215E-04 8.35671E+01 3.00000E-03
2.10000E+01 1.00293E-04 7.28568E+01 3.00000E-03
2.20000E+01 8.80676E-05 6.34520E+01 3.00000E-03
2.30000E+01 7.73325E-05 5.51936E+01 3.00000E-03
2.40000E+01 6.79061E-05 4.79419E+01 3.00000E-03
2.50000E+01 5.96287E-05 4.15741E+01 3.00000E-03
2.75000E+01 4.24599E-05 2.88744E+01 3.00000E-03
3.00000E+01 2.93911E-05 1.99930E+01 3.00000E-03
3.25000E+01 2.03470E-05 1.38449E+01 3.00000E-03
3.50000E+01 1.40873E-05 9.58852E+00 3.00000E-03
3.75000E+01 9.75447E-06 6.64143E+00 3.00000E-03
4.00000E+01 6.75498E-06 4.60067E+00 3.00000E-03
4.25000E+01 4.67831E-06 3.18738E+00 3.00000E-03
4.50000E+01 3.24041E-06 2.20853E+00 3.00000E-03
4.75000E+01 2.24469E-06 1.53049E+00 3.00000E-03
5.00000E+01 1.55510E-06 1.06079E+00 3.00000E-03
5.50000E+01 7.46612E-07 5.09877E-01 3.00000E-03
6.00000E+01 3.58602E-07 2.45333E-01 3.00000E-03
6.50000E+01 1.72309E-07 1.18249E-01 3.00000E-03
7.00000E+01 8.28292E-08 5.71729E-02 3.00000E-03
7.50000E+01 3.98323E-08 2.78086E-02 3.00000E-03
8.00000E+01 1.91630E-08 1.36848E-02 3.00000E-03
8.50000E+01 9.22293E-09 6.88872E-03 3.00000E-03
9.00000E+01 4.44066E-09 3.61729E-03 3.00000E-03
9.50000E+01 2.13895E-09 2.04188E-03 3.00000E-03
1.00000E+02 1.00000E-09 1.28292E-03 3.00000E-03
1.05000E+02 9.52381E-10 7.82920E-04 3.00000E-03
1.10000E+02 9.09091E-10 2.82920E-04 3.00000E-03
1.15000E+02 8.69565E-10 1.00000E-05 3.00000E-03
1.20000E+02 8.33333E-10 0.00000E+00 3.00000E-03
