# Atmospheric Model 95012102
# Col. #1          #2           #3            #4
# Alt [km]    rho [g/cm^3] thick [g/cm^2]    n-1
0.00000E+00 1.16472E-03 1.05300E+03 3.00000E-03
1.00000E+00 1.05918E-03 9.41884E+02 3.00000E-03
2.00000E+00 9.63215E-04 8.40841E+02 3.00000E-03
3.00000E+00 8.75963E-04 7.48951E+02 3.00000E-03
4.00000E+00 7.94618E-04 6.65408E+02 3.00000E-03
5.00000E+00 7.14966E-04 5.89999E+02 3.00000E-03
6.00000E+00 6.43301E-04 5.22149E+02 3.00000E-03
7.00000E+00 5.78822E-04 4.61100E+02 3.00000E-03
8.00000E+00 5.20809E-04 4.06169E+02 3.00000E-03
9.00000E+00 4.68612E-04 3.56744E+02 3.00000E-03
1.00000E+01 4.17925E-04 3.12337E+02 3.00000E-03
1.10000E+01 3.66097E-04 2.73193E+02 3.00000E-03
1.20000E+01 3.20699E-04 2.38904E+02 3.00000E-03
1.30000E+01 2.80933E-04 2.08866E+02 3.00000E-03
1.40000E+01 2.46099E-04 1.82553E+02 3.00000E-03
1.50000E+01 2.15586E-04 1.59502E+02 3.00000E-03
1.60000E+01 1.88858E-04 1.39309E+02 3.00000E-03
1.70000E+01 1.65445E-04 1.21620E+02 3.00000E-03
1.80000E+01 1.44936E-04 1.06124E+02 3.00000E-03
1.90000E+01 1.26970E-04 9.25482E+01 3.00000E-03
2.00000E+01 1.11231E-04 8.06555E+01 3.00000E-03
2.10000E+01 9.74448E-05 7.02369E+01 3.00000E-03
2.20000E+01 8.53676E-05 6.11096E+01 3.00000E-03
2.30000E+01 7.47878E-05 5.31135E+01 3.00000E-03
2.40000E+01 6.55197E-05 4.61083E+01 3.00000E-03
2.50000E+01 5.74006E-05 3.99713E+01 3.00000E-03
2.75000E+01 4.06922E-05 2.77792E+01 3.00000E-03
3.00000E+01 2.82058E-05 1.92621E+01 3.00000E-03
3.25000E+01 1.95534E-05 1.33582E+01 3.00000E-03
3.50000E+01 1.35570E-05 9.26511E+00 3.00000E-03
3.75000E+01 9.40069E-06 6.42707E+00 3.00000E-03
4.00000E+01 6.51950E-06 4.45898E+00 3.00000E-03
4.25000E+01 4.52194E-06 3.09401E+00 3.00000E-03
4.50000E+01 3.13683E-06 2.14720E+00 3.00000E-03
4.75000E+01 2.17627E-06 1.49037E+00 3.00000E-03
5.00000E+01 1.51004E-06 1.03465E+00 3.00000E-03
5.50000E+01 7.27292E-07 4.98957E-01 3.00000E-03
6.00000E+01 3.50465E-07 2.40891E-01 3.00000E-03
6.50000E+01 1.68964E-07 1.16508E-01 3.00000E-03
7.00000E+01 8.14996E-08 5.65281E-02 3.00000E-03
7.50000E+01 3.93301E-08 2.75908E-02 3.00000E-03
8.00000E+01 1.89889E-08 1.36234E-02 3.00000E-03
8.50000E+01 9.17226E-09 6.87839E-03 3.00000E-03
9.00000E+01 4.43253E-09 3.61968E-03 3.00000E-03
9.50000E+01 2.14301E-09 2.04458E-03 3.00000E-03
1.00000E+02 1.00000E-09 1.28292E-03 3.00000E-03
1.05000E+02 9.52381E-10 7.82920E-04 3.00000E-03
1.10000E+02 9.09091E-10 2.82920E-04 3.00000E-03
1.15000E+02 8.69565E-10 1.00000E-05 3.00000E-03
1.20000E+02 8.33333E-10 0.00000E+00 3.00000E-03
