# Atmospheric Model 9501202109
# Col. #1          #2           #3            #4
# Alt [km]    rho [g/cm^3] thick [g/cm^2]    n-1
0.00000E+00 1.16968E-03 1.05374E+03 3.00000E-03
1.00000E+00 1.06224E-03 9.42235E+02 3.00000E-03
2.00000E+00 9.64708E-04 8.40966E+02 3.00000E-03
3.00000E+00 8.76181E-04 7.48993E+02 3.00000E-03
4.00000E+00 7.94521E-04 6.65472E+02 3.00000E-03
5.00000E+00 7.16248E-04 5.90001E+02 3.00000E-03
6.00000E+00 6.45689E-04 5.21966E+02 3.00000E-03
7.00000E+00 5.82083E-04 4.60632E+02 3.00000E-03
8.00000E+00 5.24745E-04 4.05340E+02 3.00000E-03
9.00000E+00 4.73058E-04 3.55495E+02 3.00000E-03
1.00000E+01 4.21965E-04 3.10637E+02 3.00000E-03
1.10000E+01 3.68755E-04 2.71161E+02 3.00000E-03
1.20000E+01 3.22256E-04 2.36663E+02 3.00000E-03
1.30000E+01 2.81621E-04 2.06514E+02 3.00000E-03
1.40000E+01 2.46111E-04 1.80168E+02 3.00000E-03
1.50000E+01 2.15080E-04 1.57143E+02 3.00000E-03
1.60000E+01 1.87961E-04 1.37021E+02 3.00000E-03
1.70000E+01 1.64263E-04 1.19437E+02 3.00000E-03
1.80000E+01 1.43553E-04 1.04069E+02 3.00000E-03
1.90000E+01 1.25455E-04 9.06393E+01 3.00000E-03
2.00000E+01 1.09638E-04 7.89024E+01 3.00000E-03
2.10000E+01 9.58166E-05 6.86451E+01 3.00000E-03
2.20000E+01 8.37375E-05 5.96810E+01 3.00000E-03
2.30000E+01 7.31815E-05 5.18469E+01 3.00000E-03
2.40000E+01 6.39564E-05 4.50003E+01 3.00000E-03
2.50000E+01 5.58944E-05 3.90169E+01 3.00000E-03
2.75000E+01 3.95662E-05 2.71673E+01 3.00000E-03
3.00000E+01 2.74876E-05 1.88771E+01 3.00000E-03
3.25000E+01 1.90974E-05 1.31175E+01 3.00000E-03
3.50000E+01 1.32691E-05 9.11584E+00 3.00000E-03
3.75000E+01 9.22000E-06 6.33537E+00 3.00000E-03
4.00000E+01 6.40691E-06 4.40330E+00 3.00000E-03
4.25000E+01 4.45238E-06 3.06068E+00 3.00000E-03
4.50000E+01 3.09430E-06 2.12762E+00 3.00000E-03
4.75000E+01 2.15059E-06 1.47915E+00 3.00000E-03
5.00000E+01 1.49479E-06 1.02844E+00 3.00000E-03
5.50000E+01 7.22277E-07 4.97393E-01 3.00000E-03
6.00000E+01 3.49086E-07 2.40765E-01 3.00000E-03
6.50000E+01 1.68758E-07 1.16720E-01 3.00000E-03
7.00000E+01 8.16022E-08 5.67471E-02 3.00000E-03
7.50000E+01 3.94678E-08 2.77443E-02 3.00000E-03
8.00000E+01 1.90936E-08 1.37153E-02 3.00000E-03
8.50000E+01 9.23926E-09 6.92764E-03 3.00000E-03
9.00000E+01 4.47187E-09 3.64282E-03 3.00000E-03
9.50000E+01 2.16493E-09 2.05277E-03 3.00000E-03
1.00000E+02 1.00000E-09 1.28292E-03 3.00000E-03
1.05000E+02 9.52381E-10 7.82920E-04 3.00000E-03
1.10000E+02 9.09091E-10 2.82920E-04 3.00000E-03
1.15000E+02 8.69565E-10 1.00000E-05 3.00000E-03
1.20000E+02 8.33333E-10 0.00000E+00 3.00000E-03
