# Atmospheric Model 95012104
# Col. #1          #2           #3            #4
# Alt [km]    rho [g/cm^3] thick [g/cm^2]    n-1
0.00000E+00 1.18091E-03 1.05536E+03 3.00000E-03
1.00000E+00 1.07118E-03 9.42847E+02 3.00000E-03
2.00000E+00 9.71663E-04 8.40786E+02 3.00000E-03
3.00000E+00 8.81419E-04 7.48205E+02 3.00000E-03
4.00000E+00 7.98240E-04 6.64237E+02 3.00000E-03
5.00000E+00 7.18807E-04 5.88454E+02 3.00000E-03
6.00000E+00 6.47281E-04 5.20213E+02 3.00000E-03
7.00000E+00 5.82875E-04 4.58761E+02 3.00000E-03
8.00000E+00 5.24880E-04 4.03424E+02 3.00000E-03
9.00000E+00 4.72657E-04 3.53593E+02 3.00000E-03
1.00000E+01 4.20786E-04 3.08814E+02 3.00000E-03
1.10000E+01 3.67513E-04 2.69459E+02 3.00000E-03
1.20000E+01 3.20988E-04 2.35087E+02 3.00000E-03
1.30000E+01 2.80356E-04 2.05065E+02 3.00000E-03
1.40000E+01 2.44870E-04 1.78844E+02 3.00000E-03
1.50000E+01 2.13878E-04 1.55942E+02 3.00000E-03
1.60000E+01 1.86810E-04 1.35938E+02 3.00000E-03
1.70000E+01 1.63170E-04 1.18465E+02 3.00000E-03
1.80000E+01 1.42523E-04 1.03204E+02 3.00000E-03
1.90000E+01 1.24489E-04 8.98738E+01 3.00000E-03
2.00000E+01 1.08739E-04 7.82302E+01 3.00000E-03
2.10000E+01 9.49827E-05 6.80596E+01 3.00000E-03
2.20000E+01 8.29674E-05 5.91756E+01 3.00000E-03
2.30000E+01 7.24728E-05 5.14155E+01 3.00000E-03
2.40000E+01 6.33064E-05 4.46368E+01 3.00000E-03
2.50000E+01 5.53000E-05 3.87155E+01 3.00000E-03
2.75000E+01 3.90977E-05 2.70006E+01 3.00000E-03
3.00000E+01 2.72178E-05 1.88007E+01 3.00000E-03
3.25000E+01 1.89491E-05 1.30921E+01 3.00000E-03
3.50000E+01 1.31935E-05 9.11763E+00 3.00000E-03
3.75000E+01 9.18681E-06 6.35026E+00 3.00000E-03
4.00000E+01 6.39741E-06 4.42323E+00 3.00000E-03
4.25000E+01 4.45531E-06 3.08125E+00 3.00000E-03
4.50000E+01 3.10303E-06 2.14663E+00 3.00000E-03
4.75000E+01 2.16136E-06 1.49567E+00 3.00000E-03
5.00000E+01 1.50557E-06 1.04223E+00 3.00000E-03
5.50000E+01 7.30719E-07 5.06313E-01 3.00000E-03
6.00000E+01 3.54755E-07 2.46173E-01 3.00000E-03
6.50000E+01 1.72280E-07 1.19862E-01 3.00000E-03
7.00000E+01 8.36893E-08 5.85130E-02 3.00000E-03
7.50000E+01 4.06657E-08 2.87077E-02 3.00000E-03
8.00000E+01 1.97656E-08 1.42231E-02 3.00000E-03
8.50000E+01 9.60973E-09 7.18196E-03 3.00000E-03
9.00000E+01 4.67339E-09 3.75826E-03 3.00000E-03
9.50000E+01 2.27337E-09 2.09305E-03 3.00000E-03
1.00000E+02 1.00000E-09 1.28292E-03 3.00000E-03
1.05000E+02 9.52381E-10 7.82920E-04 3.00000E-03
1.10000E+02 9.09091E-10 2.82920E-04 3.00000E-03
1.15000E+02 8.69565E-10 1.00000E-05 3.00000E-03
1.20000E+02 8.33333E-10 0.00000E+00 3.00000E-03
