# Atmospheric Model 95012101
# Col. #1          #2           #3            #4
# Alt [km]    rho [g/cm^3] thick [g/cm^2]    n-1
0.00000E+00 1.16116E-03 1.05287E+03 3.00000E-03
1.00000E+00 1.05492E-03 9.42153E+02 3.00000E-03
2.00000E+00 9.58419E-04 8.41563E+02 3.00000E-03
3.00000E+00 8.70754E-04 7.50174E+02 3.00000E-03
4.00000E+00 7.89457E-04 6.67165E+02 3.00000E-03
5.00000E+00 7.10924E-04 5.92214E+02 3.00000E-03
6.00000E+00 6.40204E-04 5.24720E+02 3.00000E-03
7.00000E+00 5.76522E-04 4.63939E+02 3.00000E-03
8.00000E+00 5.19175E-04 4.09204E+02 3.00000E-03
9.00000E+00 4.67535E-04 3.59914E+02 3.00000E-03
1.00000E+01 4.17825E-04 3.15574E+02 3.00000E-03
1.10000E+01 3.66567E-04 2.76410E+02 3.00000E-03
1.20000E+01 3.21597E-04 2.42051E+02 3.00000E-03
1.30000E+01 2.82145E-04 2.11907E+02 3.00000E-03
1.40000E+01 2.47533E-04 1.85461E+02 3.00000E-03
1.50000E+01 2.17168E-04 1.62259E+02 3.00000E-03
1.60000E+01 1.90528E-04 1.41903E+02 3.00000E-03
1.70000E+01 1.67157E-04 1.24044E+02 3.00000E-03
1.80000E+01 1.46653E-04 1.08376E+02 3.00000E-03
1.90000E+01 1.28664E-04 9.46300E+01 3.00000E-03
2.00000E+01 1.12882E-04 8.25699E+01 3.00000E-03
2.10000E+01 9.90359E-05 7.19891E+01 3.00000E-03
2.20000E+01 8.68885E-05 6.27061E+01 3.00000E-03
2.30000E+01 7.62312E-05 5.45618E+01 3.00000E-03
2.40000E+01 6.68813E-05 4.74163E+01 3.00000E-03
2.50000E+01 5.86783E-05 4.11473E+01 3.00000E-03
2.75000E+01 4.16916E-05 2.86676E+01 3.00000E-03
3.00000E+01 2.89757E-05 1.99305E+01 3.00000E-03
3.25000E+01 2.01405E-05 1.38578E+01 3.00000E-03
3.50000E+01 1.40010E-05 9.63656E+00 3.00000E-03
3.75000E+01 9.73407E-06 6.70195E+00 3.00000E-03
4.00000E+01 6.76832E-06 4.66158E+00 3.00000E-03
4.25000E+01 4.70669E-06 3.24278E+00 3.00000E-03
4.50000E+01 3.27340E-06 2.25610E+00 3.00000E-03
4.75000E+01 2.27683E-06 1.56985E+00 3.00000E-03
5.00000E+01 1.58383E-06 1.09250E+00 3.00000E-03
5.50000E+01 7.66662E-07 5.29389E-01 3.00000E-03
6.00000E+01 3.71264E-07 2.56760E-01 3.00000E-03
6.50000E+01 1.79863E-07 1.24712E-01 3.00000E-03
7.00000E+01 8.71715E-08 6.07292E-02 3.00000E-03
7.50000E+01 4.22648E-08 2.97139E-02 3.00000E-03
8.00000E+01 2.04999E-08 1.46738E-02 3.00000E-03
8.50000E+01 9.94688E-09 7.37753E-03 3.00000E-03
9.00000E+01 4.82817E-09 3.83671E-03 3.00000E-03
9.50000E+01 2.34442E-09 2.11773E-03 3.00000E-03
1.00000E+02 1.00000E-09 1.28292E-03 3.00000E-03
1.05000E+02 9.52381E-10 7.82920E-04 3.00000E-03
1.10000E+02 9.09091E-10 2.82920E-04 3.00000E-03
1.15000E+02 8.69565E-10 1.00000E-05 3.00000E-03
1.20000E+02 8.33333E-10 0.00000E+00 3.00000E-03
