# Atmospheric Model 9501202106
# Col. #1          #2           #3            #4
# Alt [km]    rho [g/cm^3] thick [g/cm^2]    n-1
0.00000E+00 1.21337E-03 1.05783E+03 3.00000E-03
1.00000E+00 1.09346E-03 9.42594E+02 3.00000E-03
2.00000E+00 9.85450E-04 8.38743E+02 3.00000E-03
3.00000E+00 8.88153E-04 7.45148E+02 3.00000E-03
4.00000E+00 8.00471E-04 6.60791E+02 3.00000E-03
5.00000E+00 7.21320E-04 5.84770E+02 3.00000E-03
6.00000E+00 6.50002E-04 5.16266E+02 3.00000E-03
7.00000E+00 5.85740E-04 4.54535E+02 3.00000E-03
8.00000E+00 5.27837E-04 3.98906E+02 3.00000E-03
9.00000E+00 4.75662E-04 3.48777E+02 3.00000E-03
1.00000E+01 4.22140E-04 3.03751E+02 3.00000E-03
1.10000E+01 3.67563E-04 2.64329E+02 3.00000E-03
1.20000E+01 3.20045E-04 2.30003E+02 3.00000E-03
1.30000E+01 2.78672E-04 2.00115E+02 3.00000E-03
1.40000E+01 2.42649E-04 1.74091E+02 3.00000E-03
1.50000E+01 2.11284E-04 1.51430E+02 3.00000E-03
1.60000E+01 1.83975E-04 1.31699E+02 3.00000E-03
1.70000E+01 1.60196E-04 1.14518E+02 3.00000E-03
1.80000E+01 1.39492E-04 9.95572E+01 3.00000E-03
1.90000E+01 1.21465E-04 8.65302E+01 3.00000E-03
2.00000E+01 1.05768E-04 7.51866E+01 3.00000E-03
2.10000E+01 9.21007E-05 6.53089E+01 3.00000E-03
2.20000E+01 8.01998E-05 5.67076E+01 3.00000E-03
2.30000E+01 6.98372E-05 4.92177E+01 3.00000E-03
2.40000E+01 6.08140E-05 4.26955E+01 3.00000E-03
2.50000E+01 5.29570E-05 3.70161E+01 3.00000E-03
2.75000E+01 3.72778E-05 2.58324E+01 3.00000E-03
3.00000E+01 2.59849E-05 1.80093E+01 3.00000E-03
3.25000E+01 1.81139E-05 1.25561E+01 3.00000E-03
3.50000E+01 1.26277E-05 8.75451E+00 3.00000E-03
3.75000E+01 8.80359E-06 6.10428E+00 3.00000E-03
4.00000E+01 6.13782E-06 4.25660E+00 3.00000E-03
4.25000E+01 4.27947E-06 2.96837E+00 3.00000E-03
4.50000E+01 2.98391E-06 2.07017E+00 3.00000E-03
4.75000E+01 2.08067E-06 1.44387E+00 3.00000E-03
5.00000E+01 1.45091E-06 1.00714E+00 3.00000E-03
5.50000E+01 7.05629E-07 4.90209E-01 3.00000E-03
6.00000E+01 3.43238E-07 2.38785E-01 3.00000E-03
6.50000E+01 1.66992E-07 1.16475E-01 3.00000E-03
7.00000E+01 8.12597E-08 5.69642E-02 3.00000E-03
7.50000E+01 3.95491E-08 2.80033E-02 3.00000E-03
8.00000E+01 1.92520E-08 1.39069E-02 3.00000E-03
8.50000E+01 9.37339E-09 7.04437E-03 3.00000E-03
9.00000E+01 4.56453E-09 3.70289E-03 3.00000E-03
9.50000E+01 2.22317E-09 2.07557E-03 3.00000E-03
1.00000E+02 1.00000E-09 1.28292E-03 3.00000E-03
1.05000E+02 9.52381E-10 7.82920E-04 3.00000E-03
1.10000E+02 9.09091E-10 2.82920E-04 3.00000E-03
1.15000E+02 8.69565E-10 1.00000E-05 3.00000E-03
1.20000E+02 8.33333E-10 0.00000E+00 3.00000E-03
