# Atmospheric Model 93032108
# Col. #1          #2           #3            #4
# Alt [km]    rho [g/cm^3] thick [g/cm^2]    n-1
0.00000E+00 1.15635E-03 1.05427E+03 3.00000E-03
1.00000E+00 1.05221E-03 9.43925E+02 3.00000E-03
2.00000E+00 9.57451E-04 8.43516E+02 3.00000E-03
3.00000E+00 8.71232E-04 7.52150E+02 3.00000E-03
4.00000E+00 7.90900E-04 6.69033E+02 3.00000E-03
5.00000E+00 7.12117E-04 5.93951E+02 3.00000E-03
6.00000E+00 6.41182E-04 5.26348E+02 3.00000E-03
7.00000E+00 5.77314E-04 4.65479E+02 3.00000E-03
8.00000E+00 5.19808E-04 4.10673E+02 3.00000E-03
9.00000E+00 4.68031E-04 3.61326E+02 3.00000E-03
1.00000E+01 4.18510E-04 3.16935E+02 3.00000E-03
1.10000E+01 3.67335E-04 2.77698E+02 3.00000E-03
1.20000E+01 3.22418E-04 2.43259E+02 3.00000E-03
1.30000E+01 2.82994E-04 2.13031E+02 3.00000E-03
1.40000E+01 2.48391E-04 1.86500E+02 3.00000E-03
1.50000E+01 2.18018E-04 1.63212E+02 3.00000E-03
1.60000E+01 1.91360E-04 1.42772E+02 3.00000E-03
1.70000E+01 1.67962E-04 1.24832E+02 3.00000E-03
1.80000E+01 1.47424E-04 1.09085E+02 3.00000E-03
1.90000E+01 1.29398E-04 9.52630E+01 3.00000E-03
2.00000E+01 1.13577E-04 8.31315E+01 3.00000E-03
2.10000E+01 9.96894E-05 7.24832E+01 3.00000E-03
2.20000E+01 8.75003E-05 6.31370E+01 3.00000E-03
2.30000E+01 7.68016E-05 5.49335E+01 3.00000E-03
2.40000E+01 6.74111E-05 4.77331E+01 3.00000E-03
2.50000E+01 5.91688E-05 4.14131E+01 3.00000E-03
2.75000E+01 4.21143E-05 2.88174E+01 3.00000E-03
3.00000E+01 2.92174E-05 1.99991E+01 3.00000E-03
3.25000E+01 2.02724E-05 1.38809E+01 3.00000E-03
3.50000E+01 1.40676E-05 9.63558E+00 3.00000E-03
3.75000E+01 9.76307E-06 6.68945E+00 3.00000E-03
4.00000E+01 6.77647E-06 4.64470E+00 3.00000E-03
4.25000E+01 4.70404E-06 3.22538E+00 3.00000E-03
4.50000E+01 3.26579E-06 2.24007E+00 3.00000E-03
4.75000E+01 2.26754E-06 1.55598E+00 3.00000E-03
5.00000E+01 1.57460E-06 1.08097E+00 3.00000E-03
5.50000E+01 7.59529E-07 5.22004E-01 3.00000E-03
6.00000E+01 3.66530E-07 2.52326E-01 3.00000E-03
6.50000E+01 1.76955E-07 1.22161E-01 3.00000E-03
7.00000E+01 8.54667E-08 5.93080E-02 3.00000E-03
7.50000E+01 4.12963E-08 2.89453E-02 3.00000E-03
8.00000E+01 1.99619E-08 1.42718E-02 3.00000E-03
8.50000E+01 9.65302E-09 7.17769E-03 3.00000E-03
9.00000E+01 4.66975E-09 3.74658E-03 3.00000E-03
9.50000E+01 2.25991E-09 2.08646E-03 3.00000E-03
1.00000E+02 1.00000E-09 1.28292E-03 3.00000E-03
1.05000E+02 9.52381E-10 7.82920E-04 3.00000E-03
1.10000E+02 9.09091E-10 2.82920E-04 3.00000E-03
1.15000E+02 8.69565E-10 1.00000E-05 3.00000E-03
1.20000E+02 8.33333E-10 0.00000E+00 3.00000E-03
