# Atmospheric Model 9303202103
# Col. #1          #2           #3            #4
# Alt [km]    rho [g/cm^3] thick [g/cm^2]    n-1
0.00000E+00 1.15862E-03 1.05559E+03 3.00000E-03
1.00000E+00 1.05401E-03 9.45042E+02 3.00000E-03
2.00000E+00 9.58845E-04 8.44475E+02 3.00000E-03
3.00000E+00 8.72275E-04 7.52987E+02 3.00000E-03
4.00000E+00 7.91501E-04 6.69783E+02 3.00000E-03
5.00000E+00 7.12225E-04 5.94667E+02 3.00000E-03
6.00000E+00 6.40890E-04 5.27074E+02 3.00000E-03
7.00000E+00 5.76700E-04 4.66251E+02 3.00000E-03
8.00000E+00 5.18939E-04 4.11519E+02 3.00000E-03
9.00000E+00 4.66964E-04 3.62270E+02 3.00000E-03
1.00000E+01 4.17411E-04 3.17992E+02 3.00000E-03
1.10000E+01 3.66740E-04 2.78839E+02 3.00000E-03
1.20000E+01 3.22221E-04 2.44439E+02 3.00000E-03
1.30000E+01 2.83106E-04 2.14215E+02 3.00000E-03
1.40000E+01 2.48740E-04 1.87660E+02 3.00000E-03
1.50000E+01 2.18546E-04 1.64328E+02 3.00000E-03
1.60000E+01 1.92017E-04 1.43829E+02 3.00000E-03
1.70000E+01 1.68708E-04 1.25818E+02 3.00000E-03
1.80000E+01 1.48229E-04 1.09993E+02 3.00000E-03
1.90000E+01 1.30236E-04 9.60890E+01 3.00000E-03
2.00000E+01 1.14427E-04 8.38729E+01 3.00000E-03
2.10000E+01 1.00537E-04 7.31397E+01 3.00000E-03
2.20000E+01 8.83336E-05 6.37093E+01 3.00000E-03
2.30000E+01 7.76113E-05 5.54236E+01 3.00000E-03
2.40000E+01 6.81905E-05 4.81437E+01 3.00000E-03
2.50000E+01 5.99134E-05 4.17474E+01 3.00000E-03
2.75000E+01 4.25785E-05 2.89921E+01 3.00000E-03
3.00000E+01 2.94848E-05 2.00843E+01 3.00000E-03
3.25000E+01 2.04205E-05 1.39154E+01 3.00000E-03
3.50000E+01 1.41448E-05 9.64267E+00 3.00000E-03
3.75000E+01 9.79916E-06 6.68287E+00 3.00000E-03
4.00000E+01 6.78955E-06 4.63226E+00 3.00000E-03
4.25000E+01 4.70493E-06 3.21136E+00 3.00000E-03
4.50000E+01 3.26081E-06 2.22666E+00 3.00000E-03
4.75000E+01 2.26025E-06 1.54415E+00 3.00000E-03
5.00000E+01 1.56692E-06 1.07104E+00 3.00000E-03
5.50000E+01 7.53359E-07 5.15602E-01 3.00000E-03
6.00000E+01 3.62399E-07 2.48490E-01 3.00000E-03
6.50000E+01 1.74421E-07 1.19967E-01 3.00000E-03
7.00000E+01 8.39910E-08 5.80963E-02 3.00000E-03
7.50000E+01 4.04655E-08 2.82962E-02 3.00000E-03
8.00000E+01 1.95053E-08 1.39358E-02 3.00000E-03
8.50000E+01 9.40655E-09 7.01229E-03 3.00000E-03
9.00000E+01 4.53853E-09 3.67268E-03 3.00000E-03
9.50000E+01 2.19080E-09 2.06104E-03 3.00000E-03
1.00000E+02 1.00000E-09 1.28292E-03 3.00000E-03
1.05000E+02 9.52381E-10 7.82920E-04 3.00000E-03
1.10000E+02 9.09091E-10 2.82920E-04 3.00000E-03
1.15000E+02 8.69565E-10 1.00000E-05 3.00000E-03
1.20000E+02 8.33333E-10 0.00000E+00 3.00000E-03
