# Atmospheric Model 9303202104
# Col. #1          #2           #3            #4
# Alt [km]    rho [g/cm^3] thick [g/cm^2]    n-1
0.00000E+00 1.15525E-03 1.05580E+03 3.00000E-03
1.00000E+00 1.05116E-03 9.45562E+02 3.00000E-03
2.00000E+00 9.56460E-04 8.45255E+02 3.00000E-03
3.00000E+00 8.70290E-04 7.53985E+02 3.00000E-03
4.00000E+00 7.89900E-04 6.70961E+02 3.00000E-03
5.00000E+00 7.11002E-04 5.95986E+02 3.00000E-03
6.00000E+00 6.39984E-04 5.28499E+02 3.00000E-03
7.00000E+00 5.76061E-04 4.67752E+02 3.00000E-03
8.00000E+00 5.18523E-04 4.13074E+02 3.00000E-03
9.00000E+00 4.66732E-04 3.63856E+02 3.00000E-03
1.00000E+01 4.17492E-04 3.19590E+02 3.00000E-03
1.10000E+01 3.67039E-04 2.80418E+02 3.00000E-03
1.20000E+01 3.22684E-04 2.45979E+02 3.00000E-03
1.30000E+01 2.83689E-04 2.15702E+02 3.00000E-03
1.40000E+01 2.49406E-04 1.89084E+02 3.00000E-03
1.50000E+01 2.19267E-04 1.65683E+02 3.00000E-03
1.60000E+01 1.92769E-04 1.45110E+02 3.00000E-03
1.70000E+01 1.69474E-04 1.27023E+02 3.00000E-03
1.80000E+01 1.48994E-04 1.11121E+02 3.00000E-03
1.90000E+01 1.30989E-04 9.71412E+01 3.00000E-03
2.00000E+01 1.15160E-04 8.48508E+01 3.00000E-03
2.10000E+01 1.01244E-04 7.40455E+01 3.00000E-03
2.20000E+01 8.90090E-05 6.45460E+01 3.00000E-03
2.30000E+01 7.82529E-05 5.61945E+01 3.00000E-03
2.40000E+01 6.87967E-05 4.88521E+01 3.00000E-03
2.50000E+01 6.04832E-05 4.23971E+01 3.00000E-03
2.75000E+01 4.30719E-05 2.95094E+01 3.00000E-03
3.00000E+01 2.98946E-05 2.04887E+01 3.00000E-03
3.25000E+01 2.07514E-05 1.42274E+01 3.00000E-03
3.50000E+01 1.44065E-05 9.88086E+00 3.00000E-03
3.75000E+01 1.00029E-05 6.86311E+00 3.00000E-03
4.00000E+01 6.94622E-06 4.76767E+00 3.00000E-03
4.25000E+01 4.82421E-06 3.31246E+00 3.00000E-03
4.50000E+01 3.35088E-06 2.30175E+00 3.00000E-03
4.75000E+01 2.32780E-06 1.59967E+00 3.00000E-03
5.00000E+01 1.61728E-06 1.11192E+00 3.00000E-03
5.50000E+01 7.80953E-07 5.37528E-01 3.00000E-03
6.00000E+01 3.77288E-07 2.60108E-01 3.00000E-03
6.50000E+01 1.82358E-07 1.26055E-01 3.00000E-03
7.00000E+01 8.81816E-08 6.12493E-02 3.00000E-03
7.50000E+01 4.26607E-08 2.99051E-02 3.00000E-03
8.00000E+01 2.06476E-08 1.47385E-02 3.00000E-03
8.50000E+01 9.99771E-09 7.39643E-03 3.00000E-03
9.00000E+01 4.84302E-09 3.84070E-03 3.00000E-03
9.50000E+01 2.34699E-09 2.11794E-03 3.00000E-03
1.00000E+02 1.00000E-09 1.28292E-03 3.00000E-03
1.05000E+02 9.52381E-10 7.82920E-04 3.00000E-03
1.10000E+02 9.09091E-10 2.82920E-04 3.00000E-03
1.15000E+02 8.69565E-10 1.00000E-05 3.00000E-03
1.20000E+02 8.33333E-10 0.00000E+00 3.00000E-03
