# Atmospheric Model 93032109
# Col. #1          #2           #3            #4
# Alt [km]    rho [g/cm^3] thick [g/cm^2]    n-1
0.00000E+00 1.15524E-03 1.05378E+03 3.00000E-03
1.00000E+00 1.05126E-03 9.43537E+02 3.00000E-03
2.00000E+00 9.56647E-04 8.43216E+02 3.00000E-03
3.00000E+00 8.70551E-04 7.51923E+02 3.00000E-03
4.00000E+00 7.90357E-04 6.68868E+02 3.00000E-03
5.00000E+00 7.11830E-04 5.93827E+02 3.00000E-03
6.00000E+00 6.41106E-04 5.26242E+02 3.00000E-03
7.00000E+00 5.77410E-04 4.65372E+02 3.00000E-03
8.00000E+00 5.20043E-04 4.10549E+02 3.00000E-03
9.00000E+00 4.68377E-04 3.61173E+02 3.00000E-03
1.00000E+01 4.18831E-04 3.16745E+02 3.00000E-03
1.10000E+01 3.67534E-04 2.77482E+02 3.00000E-03
1.20000E+01 3.22520E-04 2.43029E+02 3.00000E-03
1.30000E+01 2.83020E-04 2.12795E+02 3.00000E-03
1.40000E+01 2.48357E-04 1.86264E+02 3.00000E-03
1.50000E+01 2.17940E-04 1.62982E+02 3.00000E-03
1.60000E+01 1.91248E-04 1.42551E+02 3.00000E-03
1.70000E+01 1.67825E-04 1.24623E+02 3.00000E-03
1.80000E+01 1.47271E-04 1.08891E+02 3.00000E-03
1.90000E+01 1.29235E-04 9.50852E+01 3.00000E-03
2.00000E+01 1.13407E-04 8.29703E+01 3.00000E-03
2.10000E+01 9.95183E-05 7.23391E+01 3.00000E-03
2.20000E+01 8.73303E-05 6.30100E+01 3.00000E-03
2.30000E+01 7.66350E-05 5.48233E+01 3.00000E-03
2.40000E+01 6.72497E-05 4.76393E+01 3.00000E-03
2.50000E+01 5.90137E-05 4.13351E+01 3.00000E-03
2.75000E+01 4.19883E-05 2.87759E+01 3.00000E-03
3.00000E+01 2.91475E-05 1.99815E+01 3.00000E-03
3.25000E+01 2.02357E-05 1.38762E+01 3.00000E-03
3.50000E+01 1.40502E-05 9.63741E+00 3.00000E-03
3.75000E+01 9.75640E-06 6.69417E+00 3.00000E-03
4.00000E+01 6.77549E-06 4.65029E+00 3.00000E-03
4.25000E+01 4.70582E-06 3.23082E+00 3.00000E-03
4.50000E+01 3.26869E-06 2.24490E+00 3.00000E-03
4.75000E+01 2.27067E-06 1.56005E+00 3.00000E-03
5.00000E+01 1.57753E-06 1.08427E+00 3.00000E-03
5.50000E+01 7.61643E-07 5.24032E-01 3.00000E-03
6.00000E+01 3.67866E-07 2.53500E-01 3.00000E-03
6.50000E+01 1.77742E-07 1.22814E-01 3.00000E-03
7.00000E+01 8.59113E-08 5.96599E-02 3.00000E-03
7.50000E+01 4.15400E-08 2.91298E-02 3.00000E-03
8.00000E+01 2.00926E-08 1.43655E-02 3.00000E-03
8.50000E+01 9.72202E-09 7.22297E-03 3.00000E-03
9.00000E+01 4.70570E-09 3.76648E-03 3.00000E-03
9.50000E+01 2.27843E-09 2.09321E-03 3.00000E-03
1.00000E+02 1.00000E-09 1.28292E-03 3.00000E-03
1.05000E+02 9.52381E-10 7.82920E-04 3.00000E-03
1.10000E+02 9.09091E-10 2.82920E-04 3.00000E-03
1.15000E+02 8.69565E-10 1.00000E-05 3.00000E-03
1.20000E+02 8.33333E-10 0.00000E+00 3.00000E-03
