# Atmospheric Model 9303202101
# Col. #1          #2           #3            #4
# Alt [km]    rho [g/cm^3] thick [g/cm^2]    n-1
0.00000E+00 1.15992E-03 1.05601E+03 3.00000E-03
1.00000E+00 1.05487E-03 9.45357E+02 3.00000E-03
2.00000E+00 9.59340E-04 8.44722E+02 3.00000E-03
3.00000E+00 8.72459E-04 7.53200E+02 3.00000E-03
4.00000E+00 7.91343E-04 6.69993E+02 3.00000E-03
5.00000E+00 7.11769E-04 5.94908E+02 3.00000E-03
6.00000E+00 6.40197E-04 5.27373E+02 3.00000E-03
7.00000E+00 5.75823E-04 4.66629E+02 3.00000E-03
8.00000E+00 5.17922E-04 4.11992E+02 3.00000E-03
9.00000E+00 4.65844E-04 3.62850E+02 3.00000E-03
1.00000E+01 4.16340E-04 3.18687E+02 3.00000E-03
1.10000E+01 3.66018E-04 2.79623E+02 3.00000E-03
1.20000E+01 3.21778E-04 2.45281E+02 3.00000E-03
1.30000E+01 2.82885E-04 2.15089E+02 3.00000E-03
1.40000E+01 2.48694E-04 1.88547E+02 3.00000E-03
1.50000E+01 2.18635E-04 1.65213E+02 3.00000E-03
1.60000E+01 1.92209E-04 1.44699E+02 3.00000E-03
1.70000E+01 1.68978E-04 1.26664E+02 3.00000E-03
1.80000E+01 1.48554E-04 1.10810E+02 3.00000E-03
1.90000E+01 1.30599E-04 9.68714E+01 3.00000E-03
2.00000E+01 1.14814E-04 8.46176E+01 3.00000E-03
2.10000E+01 1.00937E-04 7.38449E+01 3.00000E-03
2.20000E+01 8.87378E-05 6.43742E+01 3.00000E-03
2.30000E+01 7.80127E-05 5.60482E+01 3.00000E-03
2.40000E+01 6.85839E-05 4.87285E+01 3.00000E-03
2.50000E+01 6.02947E-05 4.22935E+01 3.00000E-03
2.75000E+01 4.28726E-05 2.94547E+01 3.00000E-03
3.00000E+01 2.97875E-05 2.04714E+01 3.00000E-03
3.25000E+01 2.06984E-05 1.42295E+01 3.00000E-03
3.50000E+01 1.43843E-05 9.89194E+00 3.00000E-03
3.75000E+01 9.99753E-06 6.87741E+00 3.00000E-03
4.00000E+01 6.94935E-06 4.78212E+00 3.00000E-03
4.25000E+01 4.83108E-06 3.32559E+00 3.00000E-03
4.50000E+01 3.35886E-06 2.31298E+00 3.00000E-03
4.75000E+01 2.33554E-06 1.60891E+00 3.00000E-03
5.00000E+01 1.62416E-06 1.11933E+00 3.00000E-03
5.50000E+01 7.85694E-07 5.42032E-01 3.00000E-03
6.00000E+01 3.80241E-07 2.62713E-01 3.00000E-03
6.50000E+01 1.84095E-07 1.27510E-01 3.00000E-03
7.00000E+01 8.91663E-08 6.20392E-02 3.00000E-03
7.50000E+01 4.32046E-08 3.03231E-02 3.00000E-03
8.00000E+01 2.09424E-08 1.49528E-02 3.00000E-03
8.50000E+01 1.01551E-08 7.50118E-03 3.00000E-03
9.00000E+01 4.92612E-09 3.88724E-03 3.00000E-03
9.50000E+01 2.39045E-09 2.13389E-03 3.00000E-03
1.00000E+02 1.00000E-09 1.28292E-03 3.00000E-03
1.05000E+02 9.52381E-10 7.82920E-04 3.00000E-03
1.10000E+02 9.09091E-10 2.82920E-04 3.00000E-03
1.15000E+02 8.69565E-10 1.00000E-05 3.00000E-03
1.20000E+02 8.33333E-10 0.00000E+00 3.00000E-03
