# Atmospheric Model 55032103
# Col. #1          #2           #3            #4
# Alt [km]    rho [g/cm^3] thick [g/cm^2]    n-1
0.00000E+00 1.16412E-03 1.05558E+03 3.00000E-03
1.00000E+00 1.05938E-03 9.44489E+02 3.00000E-03
2.00000E+00 9.64085E-04 8.43391E+02 3.00000E-03
3.00000E+00 8.77373E-04 7.51386E+02 3.00000E-03
4.00000E+00 7.96491E-04 6.67678E+02 3.00000E-03
5.00000E+00 7.16720E-04 5.92088E+02 3.00000E-03
6.00000E+00 6.44939E-04 5.24068E+02 3.00000E-03
7.00000E+00 5.80349E-04 4.62860E+02 3.00000E-03
8.00000E+00 5.22227E-04 4.07783E+02 3.00000E-03
9.00000E+00 4.69928E-04 3.58221E+02 3.00000E-03
1.00000E+01 4.19315E-04 3.13680E+02 3.00000E-03
1.10000E+01 3.67373E-04 2.74403E+02 3.00000E-03
1.20000E+01 3.21867E-04 2.39991E+02 3.00000E-03
1.30000E+01 2.81998E-04 2.09842E+02 3.00000E-03
1.40000E+01 2.47068E-04 1.83427E+02 3.00000E-03
1.50000E+01 2.16465E-04 1.60284E+02 3.00000E-03
1.60000E+01 1.89653E-04 1.40008E+02 3.00000E-03
1.70000E+01 1.66163E-04 1.22243E+02 3.00000E-03
1.80000E+01 1.45582E-04 1.06679E+02 3.00000E-03
1.90000E+01 1.27551E-04 9.30418E+01 3.00000E-03
2.00000E+01 1.11753E-04 8.10939E+01 3.00000E-03
2.10000E+01 9.79125E-05 7.06259E+01 3.00000E-03
2.20000E+01 8.57861E-05 6.14543E+01 3.00000E-03
2.30000E+01 7.51617E-05 5.34186E+01 3.00000E-03
2.40000E+01 6.58533E-05 4.63782E+01 3.00000E-03
2.50000E+01 5.76978E-05 4.02096E+01 3.00000E-03
2.75000E+01 4.09185E-05 2.79525E+01 3.00000E-03
3.00000E+01 2.83700E-05 1.93870E+01 3.00000E-03
3.25000E+01 1.96723E-05 1.34480E+01 3.00000E-03
3.50000E+01 1.36428E-05 9.32952E+00 3.00000E-03
3.75000E+01 9.46247E-06 6.47319E+00 3.00000E-03
4.00000E+01 6.56387E-06 4.49196E+00 3.00000E-03
4.25000E+01 4.55375E-06 3.11755E+00 3.00000E-03
4.50000E+01 3.15960E-06 2.16398E+00 3.00000E-03
4.75000E+01 2.19254E-06 1.50231E+00 3.00000E-03
5.00000E+01 1.52165E-06 1.04314E+00 3.00000E-03
5.50000E+01 7.33176E-07 5.03232E-01 3.00000E-03
6.00000E+01 3.53434E-07 2.43034E-01 3.00000E-03
6.50000E+01 1.70457E-07 1.17577E-01 3.00000E-03
7.00000E+01 8.22479E-08 5.70581E-02 3.00000E-03
7.50000E+01 3.97041E-08 2.78509E-02 3.00000E-03
8.00000E+01 1.91754E-08 1.37487E-02 3.00000E-03
8.50000E+01 9.26508E-09 6.93659E-03 3.00000E-03
9.00000E+01 4.47865E-09 3.64449E-03 3.00000E-03
9.50000E+01 2.16589E-09 2.05281E-03 3.00000E-03
1.00000E+02 1.00000E-09 1.28292E-03 3.00000E-03
1.05000E+02 9.52381E-10 7.82920E-04 3.00000E-03
1.10000E+02 9.09091E-10 2.82920E-04 3.00000E-03
1.15000E+02 8.69565E-10 1.00000E-05 3.00000E-03
1.20000E+02 8.33333E-10 0.00000E+00 3.00000E-03
