# Atmospheric Model 5503202101
# Col. #1          #2           #3            #4
# Alt [km]    rho [g/cm^3] thick [g/cm^2]    n-1
0.00000E+00 1.16167E-03 1.05550E+03 3.00000E-03
1.00000E+00 1.05752E-03 9.44618E+02 3.00000E-03
2.00000E+00 9.62734E-04 8.43680E+02 3.00000E-03
3.00000E+00 8.76467E-04 7.51788E+02 3.00000E-03
4.00000E+00 7.95960E-04 6.68150E+02 3.00000E-03
5.00000E+00 7.16278E-04 5.92608E+02 3.00000E-03
6.00000E+00 6.44574E-04 5.24629E+02 3.00000E-03
7.00000E+00 5.80050E-04 4.63454E+02 3.00000E-03
8.00000E+00 5.21985E-04 4.08403E+02 3.00000E-03
9.00000E+00 4.69734E-04 3.58863E+02 3.00000E-03
1.00000E+01 4.19271E-04 3.14337E+02 3.00000E-03
1.10000E+01 3.67417E-04 2.75060E+02 3.00000E-03
1.20000E+01 3.21979E-04 2.40640E+02 3.00000E-03
1.30000E+01 2.82162E-04 2.10477E+02 3.00000E-03
1.40000E+01 2.47271E-04 1.84044E+02 3.00000E-03
1.50000E+01 2.16696E-04 1.60879E+02 3.00000E-03
1.60000E+01 1.89902E-04 1.40579E+02 3.00000E-03
1.70000E+01 1.66423E-04 1.22788E+02 3.00000E-03
1.80000E+01 1.45848E-04 1.07197E+02 3.00000E-03
1.90000E+01 1.27818E-04 9.35338E+01 3.00000E-03
2.00000E+01 1.12017E-04 8.15594E+01 3.00000E-03
2.10000E+01 9.81704E-05 7.10653E+01 3.00000E-03
2.20000E+01 8.60360E-05 6.18683E+01 3.00000E-03
2.30000E+01 7.54020E-05 5.38081E+01 3.00000E-03
2.40000E+01 6.60828E-05 4.67441E+01 3.00000E-03
2.50000E+01 5.79158E-05 4.05531E+01 3.00000E-03
2.75000E+01 4.10950E-05 2.82478E+01 3.00000E-03
3.00000E+01 2.85583E-05 1.96360E+01 3.00000E-03
3.25000E+01 1.98482E-05 1.36511E+01 3.00000E-03
3.50000E+01 1.37961E-05 9.49140E+00 3.00000E-03
3.75000E+01 9.59036E-06 6.59991E+00 3.00000E-03
4.00000E+01 6.66742E-06 4.58980E+00 3.00000E-03
4.25000E+01 4.63579E-06 3.19225E+00 3.00000E-03
4.50000E+01 3.22354E-06 2.22051E+00 3.00000E-03
4.75000E+01 2.24174E-06 1.54477E+00 3.00000E-03
5.00000E+01 1.55912E-06 1.07482E+00 3.00000E-03
5.50000E+01 7.54390E-07 5.20588E-01 3.00000E-03
6.00000E+01 3.65154E-07 2.52376E-01 3.00000E-03
6.50000E+01 1.76815E-07 1.22529E-01 3.00000E-03
7.00000E+01 8.56482E-08 5.96451E-02 3.00000E-03
7.50000E+01 4.15025E-08 2.91794E-02 3.00000E-03
8.00000E+01 2.01179E-08 1.44144E-02 3.00000E-03
8.50000E+01 9.75530E-09 7.25610E-03 3.00000E-03
9.00000E+01 4.73200E-09 3.78449E-03 3.00000E-03
9.50000E+01 2.29611E-09 2.10027E-03 3.00000E-03
1.00000E+02 1.00000E-09 1.28292E-03 3.00000E-03
1.05000E+02 9.52381E-10 7.82920E-04 3.00000E-03
1.10000E+02 9.09091E-10 2.82920E-04 3.00000E-03
1.15000E+02 8.69565E-10 1.00000E-05 3.00000E-03
1.20000E+02 8.33333E-10 0.00000E+00 3.00000E-03
