# Atmospheric Model 55032106
# Col. #1          #2           #3            #4
# Alt [km]    rho [g/cm^3] thick [g/cm^2]    n-1
0.00000E+00 1.19653E-03 1.06006E+03 3.00000E-03
1.00000E+00 1.08400E-03 9.46131E+02 3.00000E-03
2.00000E+00 9.82085E-04 8.42911E+02 3.00000E-03
3.00000E+00 8.89779E-04 7.49394E+02 3.00000E-03
4.00000E+00 8.04763E-04 6.64682E+02 3.00000E-03
5.00000E+00 7.23574E-04 5.88337E+02 3.00000E-03
6.00000E+00 6.50578E-04 5.19694E+02 3.00000E-03
7.00000E+00 5.84949E-04 4.57976E+02 3.00000E-03
8.00000E+00 5.25943E-04 4.02483E+02 3.00000E-03
9.00000E+00 4.72891E-04 3.52589E+02 3.00000E-03
1.00000E+01 4.20235E-04 3.07828E+02 3.00000E-03
1.10000E+01 3.66914E-04 2.68531E+02 3.00000E-03
1.20000E+01 3.20359E-04 2.34220E+02 3.00000E-03
1.30000E+01 2.79713E-04 2.04262E+02 3.00000E-03
1.40000E+01 2.44225E-04 1.78106E+02 3.00000E-03
1.50000E+01 2.13240E-04 1.55268E+02 3.00000E-03
1.60000E+01 1.86187E-04 1.35327E+02 3.00000E-03
1.70000E+01 1.62567E-04 1.17916E+02 3.00000E-03
1.80000E+01 1.41944E-04 1.02713E+02 3.00000E-03
1.90000E+01 1.23938E-04 8.94396E+01 3.00000E-03
2.00000E+01 1.08217E-04 7.78497E+01 3.00000E-03
2.10000E+01 9.44899E-05 6.77298E+01 3.00000E-03
2.20000E+01 8.25046E-05 5.88937E+01 3.00000E-03
2.30000E+01 7.20399E-05 5.11783E+01 3.00000E-03
2.40000E+01 6.29028E-05 4.44414E+01 3.00000E-03
2.50000E+01 5.49249E-05 3.85591E+01 3.00000E-03
2.75000E+01 3.88379E-05 2.69266E+01 3.00000E-03
3.00000E+01 2.70747E-05 1.87758E+01 3.00000E-03
3.25000E+01 1.88760E-05 1.30935E+01 3.00000E-03
3.50000E+01 1.31612E-05 9.13172E+00 3.00000E-03
3.75000E+01 9.17741E-06 6.36926E+00 3.00000E-03
4.00000E+01 6.40003E-06 4.44291E+00 3.00000E-03
4.25000E+01 4.46356E-06 3.09948E+00 3.00000E-03
4.50000E+01 3.11328E-06 2.16249E+00 3.00000E-03
4.75000E+01 2.17166E-06 1.50893E+00 3.00000E-03
5.00000E+01 1.51496E-06 1.05302E+00 3.00000E-03
5.50000E+01 7.37444E-07 5.13062E-01 3.00000E-03
6.00000E+01 3.59086E-07 2.50184E-01 3.00000E-03
6.50000E+01 1.74907E-07 1.22162E-01 3.00000E-03
7.00000E+01 8.52226E-08 5.97951E-02 3.00000E-03
7.50000E+01 4.15370E-08 2.94030E-02 3.00000E-03
8.00000E+01 2.02510E-08 1.45881E-02 3.00000E-03
8.50000E+01 9.87613E-09 7.36430E-03 3.00000E-03
9.00000E+01 4.81785E-09 3.84089E-03 3.00000E-03
9.50000E+01 2.35095E-09 2.12186E-03 3.00000E-03
1.00000E+02 1.00000E-09 1.28292E-03 3.00000E-03
1.05000E+02 9.52381E-10 7.82920E-04 3.00000E-03
1.10000E+02 9.09091E-10 2.82920E-04 3.00000E-03
1.15000E+02 8.69565E-10 1.00000E-05 3.00000E-03
1.20000E+02 8.33333E-10 0.00000E+00 3.00000E-03
