# Atmospheric Model 55032107
# Col. #1          #2           #3            #4
# Alt [km]    rho [g/cm^3] thick [g/cm^2]    n-1
0.00000E+00 1.21065E-03 1.06254E+03 3.00000E-03
1.00000E+00 1.09288E-03 9.47461E+02 3.00000E-03
2.00000E+00 9.86610E-04 8.43577E+02 3.00000E-03
3.00000E+00 8.90719E-04 7.49793E+02 3.00000E-03
4.00000E+00 8.03542E-04 6.65129E+02 3.00000E-03
5.00000E+00 7.22926E-04 5.88877E+02 3.00000E-03
6.00000E+00 6.50405E-04 5.20274E+02 3.00000E-03
7.00000E+00 5.85166E-04 4.58553E+02 3.00000E-03
8.00000E+00 5.26476E-04 4.03023E+02 3.00000E-03
9.00000E+00 4.73677E-04 3.53062E+02 3.00000E-03
1.00000E+01 4.21361E-04 3.08204E+02 3.00000E-03
1.10000E+01 3.67830E-04 2.68805E+02 3.00000E-03
1.20000E+01 3.21103E-04 2.34411E+02 3.00000E-03
1.30000E+01 2.80313E-04 2.04386E+02 3.00000E-03
1.40000E+01 2.44707E-04 1.78176E+02 3.00000E-03
1.50000E+01 2.13626E-04 1.55294E+02 3.00000E-03
1.60000E+01 1.86494E-04 1.35319E+02 3.00000E-03
1.70000E+01 1.62809E-04 1.17881E+02 3.00000E-03
1.80000E+01 1.42133E-04 1.02657E+02 3.00000E-03
1.90000E+01 1.24084E-04 8.93666E+01 3.00000E-03
2.00000E+01 1.08328E-04 7.77639E+01 3.00000E-03
2.10000E+01 9.45731E-05 6.76344E+01 3.00000E-03
2.20000E+01 8.25656E-05 5.87910E+01 3.00000E-03
2.30000E+01 7.20832E-05 5.10704E+01 3.00000E-03
2.40000E+01 6.29321E-05 4.43300E+01 3.00000E-03
2.50000E+01 5.49432E-05 3.84453E+01 3.00000E-03
2.75000E+01 3.88385E-05 2.68100E+01 3.00000E-03
3.00000E+01 2.70333E-05 1.86650E+01 3.00000E-03
3.25000E+01 1.88178E-05 1.29955E+01 3.00000E-03
3.50000E+01 1.31000E-05 9.04884E+00 3.00000E-03
3.75000E+01 9.12028E-06 6.30128E+00 3.00000E-03
4.00000E+01 6.35005E-06 4.38835E+00 3.00000E-03
4.25000E+01 4.42159E-06 3.05641E+00 3.00000E-03
4.50000E+01 3.07901E-06 2.12894E+00 3.00000E-03
4.75000E+01 2.14425E-06 1.48307E+00 3.00000E-03
5.00000E+01 1.49339E-06 1.03326E+00 3.00000E-03
5.50000E+01 7.24536E-07 5.01764E-01 3.00000E-03
6.00000E+01 3.51617E-07 2.43869E-01 3.00000E-03
6.50000E+01 1.70688E-07 1.18697E-01 3.00000E-03
7.00000E+01 8.28806E-08 5.79268E-02 3.00000E-03
7.50000E+01 4.02551E-08 2.84151E-02 3.00000E-03
8.00000E+01 1.95571E-08 1.40796E-02 3.00000E-03
8.50000E+01 9.50392E-09 7.11414E-03 3.00000E-03
9.00000E+01 4.61968E-09 3.72886E-03 3.00000E-03
9.50000E+01 2.24611E-09 2.08316E-03 3.00000E-03
1.00000E+02 1.00000E-09 1.28292E-03 3.00000E-03
1.05000E+02 9.52381E-10 7.82920E-04 3.00000E-03
1.10000E+02 9.09091E-10 2.82920E-04 3.00000E-03
1.15000E+02 8.69565E-10 1.00000E-05 3.00000E-03
1.20000E+02 8.33333E-10 0.00000E+00 3.00000E-03
