# Atmospheric Model 5409202104
# Col. #1          #2           #3            #4
# Alt [km]    rho [g/cm^3] thick [g/cm^2]    n-1
0.00000E+00 1.20338E-03 1.04694E+03 3.00000E-03
1.00000E+00 1.09004E-03 9.32364E+02 3.00000E-03
2.00000E+00 9.87382E-04 8.28578E+02 3.00000E-03
3.00000E+00 8.94400E-04 7.34565E+02 3.00000E-03
4.00000E+00 8.08171E-04 6.49441E+02 3.00000E-03
5.00000E+00 7.26743E-04 5.72767E+02 3.00000E-03
6.00000E+00 6.53524E-04 5.03819E+02 3.00000E-03
7.00000E+00 5.87686E-04 4.41816E+02 3.00000E-03
8.00000E+00 5.28485E-04 3.86060E+02 3.00000E-03
9.00000E+00 4.75250E-04 3.35921E+02 3.00000E-03
1.00000E+01 4.17420E-04 2.91161E+02 3.00000E-03
1.10000E+01 3.61658E-04 2.52273E+02 3.00000E-03
1.20000E+01 3.13348E-04 2.18581E+02 3.00000E-03
1.30000E+01 2.71493E-04 1.89389E+02 3.00000E-03
1.40000E+01 2.35231E-04 1.64096E+02 3.00000E-03
1.50000E+01 2.03815E-04 1.42181E+02 3.00000E-03
1.60000E+01 1.76595E-04 1.23193E+02 3.00000E-03
1.70000E+01 1.53012E-04 1.06741E+02 3.00000E-03
1.80000E+01 1.32580E-04 9.24858E+01 3.00000E-03
1.90000E+01 1.14877E-04 8.01342E+01 3.00000E-03
2.00000E+01 9.95383E-05 6.94318E+01 3.00000E-03
2.10000E+01 8.62486E-05 6.01583E+01 3.00000E-03
2.20000E+01 7.47340E-05 5.21229E+01 3.00000E-03
2.30000E+01 6.47571E-05 4.51603E+01 3.00000E-03
2.40000E+01 5.61126E-05 3.91271E+01 3.00000E-03
2.50000E+01 4.86225E-05 3.38993E+01 3.00000E-03
2.75000E+01 3.39762E-05 2.36828E+01 3.00000E-03
3.00000E+01 2.37341E-05 1.65455E+01 3.00000E-03
3.25000E+01 1.65800E-05 1.15596E+01 3.00000E-03
3.50000E+01 1.15828E-05 8.07649E+00 3.00000E-03
3.75000E+01 8.09203E-06 5.64318E+00 3.00000E-03
4.00000E+01 5.65350E-06 3.94317E+00 3.00000E-03
4.25000E+01 3.94996E-06 2.75544E+00 3.00000E-03
4.50000E+01 2.75984E-06 1.92558E+00 3.00000E-03
4.75000E+01 1.92837E-06 1.34575E+00 3.00000E-03
5.00000E+01 1.34745E-06 9.40606E-01 3.00000E-03
5.50000E+01 6.57968E-07 4.59675E-01 3.00000E-03
6.00000E+01 3.21335E-07 2.24819E-01 3.00000E-03
6.50000E+01 1.56953E-07 1.10115E-01 3.00000E-03
7.00000E+01 7.66733E-08 5.40851E-02 3.00000E-03
7.50000E+01 3.74608E-08 2.67123E-02 3.00000E-03
8.00000E+01 1.83050E-08 1.33377E-02 3.00000E-03
8.50000E+01 8.94585E-09 6.80192E-03 3.00000E-03
9.00000E+01 4.37252E-09 3.60762E-03 3.00000E-03
9.50000E+01 2.13747E-09 2.04623E-03 3.00000E-03
1.00000E+02 1.00000E-09 1.28292E-03 3.00000E-03
1.05000E+02 9.52381E-10 7.82920E-04 3.00000E-03
1.10000E+02 9.09091E-10 2.82920E-04 3.00000E-03
1.15000E+02 8.69565E-10 1.00000E-05 3.00000E-03
1.20000E+02 8.33333E-10 0.00000E+00 3.00000E-03
