# Atmospheric Model 54092103
# Col. #1          #2           #3            #4
# Alt [km]    rho [g/cm^3] thick [g/cm^2]    n-1
0.00000E+00 1.20436E-03 1.04894E+03 3.00000E-03
1.00000E+00 1.09019E-03 9.34307E+02 3.00000E-03
2.00000E+00 9.86869E-04 8.30540E+02 3.00000E-03
3.00000E+00 8.93362E-04 7.36607E+02 3.00000E-03
4.00000E+00 8.06858E-04 6.51604E+02 3.00000E-03
5.00000E+00 7.25319E-04 5.75067E+02 3.00000E-03
6.00000E+00 6.52025E-04 5.06265E+02 3.00000E-03
7.00000E+00 5.86141E-04 4.44416E+02 3.00000E-03
8.00000E+00 5.26919E-04 3.88815E+02 3.00000E-03
9.00000E+00 4.73683E-04 3.38832E+02 3.00000E-03
1.00000E+01 4.17214E-04 2.94164E+02 3.00000E-03
1.10000E+01 3.62105E-04 2.55263E+02 3.00000E-03
1.20000E+01 3.14280E-04 2.21501E+02 3.00000E-03
1.30000E+01 2.72775E-04 1.92197E+02 3.00000E-03
1.40000E+01 2.36756E-04 1.66763E+02 3.00000E-03
1.50000E+01 2.05496E-04 1.44687E+02 3.00000E-03
1.60000E+01 1.78366E-04 1.25526E+02 3.00000E-03
1.70000E+01 1.54820E-04 1.08895E+02 3.00000E-03
1.80000E+01 1.34384E-04 9.44586E+01 3.00000E-03
1.90000E+01 1.16648E-04 8.19279E+01 3.00000E-03
2.00000E+01 1.01254E-04 7.10510E+01 3.00000E-03
2.10000E+01 8.78928E-05 6.16094E+01 3.00000E-03
2.20000E+01 7.62959E-05 5.34137E+01 3.00000E-03
2.30000E+01 6.62301E-05 4.62993E+01 3.00000E-03
2.40000E+01 5.74932E-05 4.01234E+01 3.00000E-03
2.50000E+01 4.99095E-05 3.47622E+01 3.00000E-03
2.75000E+01 3.49632E-05 2.42558E+01 3.00000E-03
3.00000E+01 2.43815E-05 1.69171E+01 3.00000E-03
3.25000E+01 1.70031E-05 1.17993E+01 3.00000E-03
3.50000E+01 1.18582E-05 8.23021E+00 3.00000E-03
3.75000E+01 8.27041E-06 5.74102E+00 3.00000E-03
4.00000E+01 5.76842E-06 4.00491E+00 3.00000E-03
4.25000E+01 4.02352E-06 2.79399E+00 3.00000E-03
4.50000E+01 2.80657E-06 1.94934E+00 3.00000E-03
4.75000E+01 1.95779E-06 1.36016E+00 3.00000E-03
5.00000E+01 1.36577E-06 9.49144E-01 3.00000E-03
5.50000E+01 6.64747E-07 4.62376E-01 3.00000E-03
6.00000E+01 3.23605E-07 2.25437E-01 3.00000E-03
6.50000E+01 1.57563E-07 1.10083E-01 3.00000E-03
7.00000E+01 7.67309E-08 5.39136E-02 3.00000E-03
7.50000E+01 3.73736E-08 2.65575E-02 3.00000E-03
8.00000E+01 1.82069E-08 1.32320E-02 3.00000E-03
8.50000E+01 8.87129E-09 6.73985E-03 3.00000E-03
9.00000E+01 4.32327E-09 3.57631E-03 3.00000E-03
9.50000E+01 2.10725E-09 2.03449E-03 3.00000E-03
1.00000E+02 1.00000E-09 1.28292E-03 3.00000E-03
1.05000E+02 9.52381E-10 7.82920E-04 3.00000E-03
1.10000E+02 9.09091E-10 2.82920E-04 3.00000E-03
1.15000E+02 8.69565E-10 1.00000E-05 3.00000E-03
1.20000E+02 8.33333E-10 0.00000E+00 3.00000E-03
