# Atmospheric Model 54092102
# Col. #1          #2           #3            #4
# Alt [km]    rho [g/cm^3] thick [g/cm^2]    n-1
0.00000E+00 1.19501E-03 1.04649E+03 3.00000E-03
1.00000E+00 1.08328E-03 9.32664E+02 3.00000E-03
2.00000E+00 9.82029E-04 8.29481E+02 3.00000E-03
3.00000E+00 8.90264E-04 7.35942E+02 3.00000E-03
4.00000E+00 8.05014E-04 6.51178E+02 3.00000E-03
5.00000E+00 7.24140E-04 5.74792E+02 3.00000E-03
6.00000E+00 6.51401E-04 5.06079E+02 3.00000E-03
7.00000E+00 5.85979E-04 4.44268E+02 3.00000E-03
8.00000E+00 5.27137E-04 3.88664E+02 3.00000E-03
9.00000E+00 4.74211E-04 3.38644E+02 3.00000E-03
1.00000E+01 4.18069E-04 2.93895E+02 3.00000E-03
1.10000E+01 3.62677E-04 2.54923E+02 3.00000E-03
1.20000E+01 3.14627E-04 2.21115E+02 3.00000E-03
1.30000E+01 2.72944E-04 1.91786E+02 3.00000E-03
1.40000E+01 2.36785E-04 1.66342E+02 3.00000E-03
1.50000E+01 2.05417E-04 1.44269E+02 3.00000E-03
1.60000E+01 1.78206E-04 1.25120E+02 3.00000E-03
1.70000E+01 1.54601E-04 1.08508E+02 3.00000E-03
1.80000E+01 1.34123E-04 9.40960E+01 3.00000E-03
1.90000E+01 1.16358E-04 8.15930E+01 3.00000E-03
2.00000E+01 1.00947E-04 7.07460E+01 3.00000E-03
2.10000E+01 8.75775E-05 6.13356E+01 3.00000E-03
2.20000E+01 7.59792E-05 5.31715E+01 3.00000E-03
2.30000E+01 6.59173E-05 4.60886E+01 3.00000E-03
2.40000E+01 5.71882E-05 3.99436E+01 3.00000E-03
2.50000E+01 4.96154E-05 3.46124E+01 3.00000E-03
2.75000E+01 3.47391E-05 2.41737E+01 3.00000E-03
3.00000E+01 2.42530E-05 1.68780E+01 3.00000E-03
3.25000E+01 1.69325E-05 1.17845E+01 3.00000E-03
3.50000E+01 1.18219E-05 8.22836E+00 3.00000E-03
3.75000E+01 8.25399E-06 5.74552E+00 3.00000E-03
4.00000E+01 5.76302E-06 4.01200E+00 3.00000E-03
4.25000E+01 4.02389E-06 2.80163E+00 3.00000E-03
4.50000E+01 2.80965E-06 1.95651E+00 3.00000E-03
4.75000E+01 1.96186E-06 1.36640E+00 3.00000E-03
5.00000E+01 1.36991E-06 9.54348E-01 3.00000E-03
5.50000E+01 6.67997E-07 4.65701E-01 3.00000E-03
6.00000E+01 3.25758E-07 2.27418E-01 3.00000E-03
6.50000E+01 1.58874E-07 1.11211E-01 3.00000E-03
7.00000E+01 7.74912E-08 5.45339E-02 3.00000E-03
7.50000E+01 3.77998E-08 2.68885E-02 3.00000E-03
8.00000E+01 1.84402E-08 1.34027E-02 3.00000E-03
8.50000E+01 8.99664E-09 6.82352E-03 3.00000E-03
9.00000E+01 4.38969E-09 3.61354E-03 3.00000E-03
9.50000E+01 2.14203E-09 2.04725E-03 3.00000E-03
1.00000E+02 1.00000E-09 1.28292E-03 3.00000E-03
1.05000E+02 9.52381E-10 7.82920E-04 3.00000E-03
1.10000E+02 9.09091E-10 2.82920E-04 3.00000E-03
1.15000E+02 8.69565E-10 1.00000E-05 3.00000E-03
1.20000E+02 8.33333E-10 0.00000E+00 3.00000E-03
