# Atmospheric Model 5409202105
# Col. #1          #2           #3            #4
# Alt [km]    rho [g/cm^3] thick [g/cm^2]    n-1
0.00000E+00 1.23247E-03 1.04585E+03 3.00000E-03
1.00000E+00 1.11331E-03 9.28658E+02 3.00000E-03
2.00000E+00 1.00568E-03 8.22800E+02 3.00000E-03
3.00000E+00 9.08471E-04 7.27175E+02 3.00000E-03
4.00000E+00 8.17990E-04 6.40855E+02 3.00000E-03
5.00000E+00 7.33587E-04 5.63353E+02 3.00000E-03
6.00000E+00 6.57906E-04 4.93847E+02 3.00000E-03
7.00000E+00 5.90043E-04 4.31511E+02 3.00000E-03
8.00000E+00 5.29191E-04 3.75605E+02 3.00000E-03
9.00000E+00 4.74524E-04 3.25464E+02 3.00000E-03
1.00000E+01 4.12784E-04 2.81040E+02 3.00000E-03
1.10000E+01 3.56199E-04 2.42661E+02 3.00000E-03
1.20000E+01 3.07375E-04 2.09542E+02 3.00000E-03
1.30000E+01 2.65249E-04 1.80963E+02 3.00000E-03
1.40000E+01 2.28899E-04 1.56300E+02 3.00000E-03
1.50000E+01 1.97534E-04 1.35017E+02 3.00000E-03
1.60000E+01 1.70470E-04 1.16650E+02 3.00000E-03
1.70000E+01 1.47116E-04 1.00799E+02 3.00000E-03
1.80000E+01 1.26964E-04 8.71197E+01 3.00000E-03
1.90000E+01 1.09574E-04 7.53142E+01 3.00000E-03
2.00000E+01 9.45676E-05 6.51255E+01 3.00000E-03
2.10000E+01 8.16176E-05 5.63322E+01 3.00000E-03
2.20000E+01 7.04421E-05 4.87429E+01 3.00000E-03
2.30000E+01 6.07978E-05 4.21927E+01 3.00000E-03
2.40000E+01 5.24748E-05 3.65393E+01 3.00000E-03
2.50000E+01 4.52920E-05 3.16598E+01 3.00000E-03
2.75000E+01 3.15348E-05 2.21745E+01 3.00000E-03
3.00000E+01 2.20984E-05 1.55401E+01 3.00000E-03
3.25000E+01 1.54860E-05 1.08909E+01 3.00000E-03
3.50000E+01 1.08525E-05 7.63288E+00 3.00000E-03
3.75000E+01 7.60547E-06 5.34964E+00 3.00000E-03
4.00000E+01 5.33007E-06 3.74952E+00 3.00000E-03
4.25000E+01 3.73550E-06 2.62811E+00 3.00000E-03
4.50000E+01 2.61803E-06 1.84218E+00 3.00000E-03
4.75000E+01 1.83488E-06 1.29135E+00 3.00000E-03
5.00000E+01 1.28603E-06 9.05292E-01 3.00000E-03
5.50000E+01 6.31776E-07 4.45059E-01 3.00000E-03
6.00000E+01 3.10392E-07 2.18956E-01 3.00000E-03
6.50000E+01 1.52508E-07 1.07868E-01 3.00000E-03
7.00000E+01 7.49392E-08 5.32836E-02 3.00000E-03
7.50000E+01 3.68264E-08 2.64612E-02 3.00000E-03
8.00000E+01 1.80985E-08 1.32798E-02 3.00000E-03
8.50000E+01 8.89525E-09 6.80157E-03 3.00000E-03
9.00000E+01 4.37227E-09 3.61745E-03 3.00000E-03
9.50000E+01 2.14925E-09 2.05231E-03 3.00000E-03
1.00000E+02 1.00000E-09 1.28292E-03 3.00000E-03
1.05000E+02 9.52381E-10 7.82920E-04 3.00000E-03
1.10000E+02 9.09091E-10 2.82920E-04 3.00000E-03
1.15000E+02 8.69565E-10 1.00000E-05 3.00000E-03
1.20000E+02 8.33333E-10 0.00000E+00 3.00000E-03
