# Atmospheric Model 54092108
# Col. #1          #2           #3            #4
# Alt [km]    rho [g/cm^3] thick [g/cm^2]    n-1
0.00000E+00 1.23629E-03 1.04349E+03 3.00000E-03
1.00000E+00 1.11671E-03 9.25941E+02 3.00000E-03
2.00000E+00 1.00872E-03 8.19761E+02 3.00000E-03
3.00000E+00 9.11190E-04 7.23849E+02 3.00000E-03
4.00000E+00 8.20481E-04 6.37275E+02 3.00000E-03
5.00000E+00 7.36427E-04 5.59505E+02 3.00000E-03
6.00000E+00 6.60999E-04 4.89702E+02 3.00000E-03
7.00000E+00 5.93310E-04 4.27048E+02 3.00000E-03
8.00000E+00 5.32565E-04 3.70809E+02 3.00000E-03
9.00000E+00 4.77248E-04 3.20334E+02 3.00000E-03
1.00000E+01 4.13352E-04 2.75770E+02 3.00000E-03
1.10000E+01 3.55468E-04 2.37402E+02 3.00000E-03
1.20000E+01 3.05701E-04 2.04406E+02 3.00000E-03
1.30000E+01 2.62912E-04 1.76029E+02 3.00000E-03
1.40000E+01 2.26121E-04 1.51624E+02 3.00000E-03
1.50000E+01 1.94486E-04 1.30634E+02 3.00000E-03
1.60000E+01 1.67283E-04 1.12579E+02 3.00000E-03
1.70000E+01 1.43891E-04 9.70501E+01 3.00000E-03
1.80000E+01 1.23774E-04 8.36921E+01 3.00000E-03
1.90000E+01 1.06474E-04 7.22014E+01 3.00000E-03
2.00000E+01 9.15962E-05 6.23166E+01 3.00000E-03
2.10000E+01 7.87999E-05 5.38129E+01 3.00000E-03
2.20000E+01 6.77940E-05 4.64970E+01 3.00000E-03
2.30000E+01 5.83276E-05 4.02028E+01 3.00000E-03
2.40000E+01 5.01849E-05 3.47874E+01 3.00000E-03
2.50000E+01 4.31807E-05 3.01279E+01 3.00000E-03
2.75000E+01 2.99560E-05 2.11090E+01 3.00000E-03
3.00000E+01 2.10076E-05 1.48046E+01 3.00000E-03
3.25000E+01 1.47327E-05 1.03833E+01 3.00000E-03
3.50000E+01 1.03323E-05 7.28267E+00 3.00000E-03
3.75000E+01 7.24638E-06 5.10810E+00 3.00000E-03
4.00000E+01 5.08227E-06 3.58299E+00 3.00000E-03
4.25000E+01 3.56454E-06 2.51333E+00 3.00000E-03
4.50000E+01 2.50012E-06 1.76310E+00 3.00000E-03
4.75000E+01 1.75359E-06 1.23689E+00 3.00000E-03
5.00000E+01 1.23000E-06 8.67801E-01 3.00000E-03
5.50000E+01 6.05190E-07 4.27318E-01 3.00000E-03
6.00000E+01 2.97796E-07 2.10580E-01 3.00000E-03
6.50000E+01 1.46550E-07 1.03926E-01 3.00000E-03
7.00000E+01 7.21258E-08 5.14380E-02 3.00000E-03
7.50000E+01 3.55006E-08 2.56044E-02 3.00000E-03
8.00000E+01 1.74750E-08 1.28885E-02 3.00000E-03
8.50000E+01 8.60279E-09 6.62891E-03 3.00000E-03
9.00000E+01 4.23543E-09 3.54726E-03 3.00000E-03
9.50000E+01 2.08541E-09 2.03000E-03 3.00000E-03
1.00000E+02 1.00000E-09 1.28292E-03 3.00000E-03
1.05000E+02 9.52381E-10 7.82920E-04 3.00000E-03
1.10000E+02 9.09091E-10 2.82920E-04 3.00000E-03
1.15000E+02 8.69565E-10 1.00000E-05 3.00000E-03
1.20000E+02 8.33333E-10 0.00000E+00 3.00000E-03
