# Atmospheric Model 5401202108
# Col. #1          #2           #3            #4
# Alt [km]    rho [g/cm^3] thick [g/cm^2]    n-1
0.00000E+00 1.20221E-03 1.05107E+03 3.00000E-03
1.00000E+00 1.09022E-03 9.36537E+02 3.00000E-03
2.00000E+00 9.88663E-04 8.32676E+02 3.00000E-03
3.00000E+00 8.96568E-04 7.38489E+02 3.00000E-03
4.00000E+00 8.12220E-04 6.53082E+02 3.00000E-03
5.00000E+00 7.30746E-04 5.76005E+02 3.00000E-03
6.00000E+00 6.57451E-04 5.06660E+02 3.00000E-03
7.00000E+00 5.91512E-04 4.44270E+02 3.00000E-03
8.00000E+00 5.32192E-04 3.88137E+02 3.00000E-03
9.00000E+00 4.78825E-04 3.37633E+02 3.00000E-03
1.00000E+01 4.21314E-04 2.92482E+02 3.00000E-03
1.10000E+01 3.64754E-04 2.53247E+02 3.00000E-03
1.20000E+01 3.15790E-04 2.19278E+02 3.00000E-03
1.30000E+01 2.73402E-04 1.89870E+02 3.00000E-03
1.40000E+01 2.36705E-04 1.64409E+02 3.00000E-03
1.50000E+01 2.04936E-04 1.42365E+02 3.00000E-03
1.60000E+01 1.77432E-04 1.23279E+02 3.00000E-03
1.70000E+01 1.53620E-04 1.06755E+02 3.00000E-03
1.80000E+01 1.33006E-04 9.24488E+01 3.00000E-03
1.90000E+01 1.15158E-04 8.00620E+01 3.00000E-03
2.00000E+01 9.97067E-05 6.93373E+01 3.00000E-03
2.10000E+01 8.63291E-05 6.00516E+01 3.00000E-03
2.20000E+01 7.47471E-05 5.20117E+01 3.00000E-03
2.30000E+01 6.47194E-05 4.50504E+01 3.00000E-03
2.40000E+01 5.60375E-05 3.90230E+01 3.00000E-03
2.50000E+01 4.85207E-05 3.38041E+01 3.00000E-03
2.75000E+01 3.38685E-05 2.36166E+01 3.00000E-03
3.00000E+01 2.36627E-05 1.65013E+01 3.00000E-03
3.25000E+01 1.65327E-05 1.15301E+01 3.00000E-03
3.50000E+01 1.15513E-05 8.05670E+00 3.00000E-03
3.75000E+01 8.07104E-06 5.62985E+00 3.00000E-03
4.00000E+01 5.63947E-06 3.93416E+00 3.00000E-03
4.25000E+01 3.94056E-06 2.74932E+00 3.00000E-03
4.50000E+01 2.75351E-06 1.92141E+00 3.00000E-03
4.75000E+01 1.92409E-06 1.34289E+00 3.00000E-03
5.00000E+01 1.34454E-06 9.38633E-01 3.00000E-03
5.50000E+01 6.56603E-07 4.58721E-01 3.00000E-03
6.00000E+01 3.20679E-07 2.24348E-01 3.00000E-03
6.50000E+01 1.56631E-07 1.09877E-01 3.00000E-03
7.00000E+01 7.65113E-08 5.39637E-02 3.00000E-03
7.50000E+01 3.73776E-08 2.66499E-02 3.00000E-03
8.00000E+01 1.82615E-08 1.33059E-02 3.00000E-03
8.50000E+01 8.92278E-09 6.78624E-03 3.00000E-03
9.00000E+01 4.36016E-09 3.60052E-03 3.00000E-03
9.50000E+01 2.13080E-09 2.04374E-03 3.00000E-03
1.00000E+02 1.00000E-09 1.28292E-03 3.00000E-03
1.05000E+02 9.52381E-10 7.82920E-04 3.00000E-03
1.10000E+02 9.09091E-10 2.82920E-04 3.00000E-03
1.15000E+02 8.69565E-10 1.00000E-05 3.00000E-03
1.20000E+02 8.33333E-10 0.00000E+00 3.00000E-03
