# Atmospheric Model 54012103
# Col. #1          #2           #3            #4
# Alt [km]    rho [g/cm^3] thick [g/cm^2]    n-1
0.00000E+00 1.15979E-03 1.04509E+03 3.00000E-03
1.00000E+00 1.05360E-03 9.34506E+02 3.00000E-03
2.00000E+00 9.57125E-04 8.34048E+02 3.00000E-03
3.00000E+00 8.69487E-04 7.42787E+02 3.00000E-03
4.00000E+00 7.89368E-04 6.59886E+02 3.00000E-03
5.00000E+00 7.13548E-04 5.84804E+02 3.00000E-03
6.00000E+00 6.45014E-04 5.16934E+02 3.00000E-03
7.00000E+00 5.83065E-04 4.55582E+02 3.00000E-03
8.00000E+00 5.27070E-04 4.00122E+02 3.00000E-03
9.00000E+00 4.76454E-04 3.49989E+02 3.00000E-03
1.00000E+01 4.24110E-04 3.04811E+02 3.00000E-03
1.10000E+01 3.69208E-04 2.65209E+02 3.00000E-03
1.20000E+01 3.21415E-04 2.30733E+02 3.00000E-03
1.30000E+01 2.79810E-04 2.00720E+02 3.00000E-03
1.40000E+01 2.43591E-04 1.74592E+02 3.00000E-03
1.50000E+01 2.12062E-04 1.51845E+02 3.00000E-03
1.60000E+01 1.84615E-04 1.32043E+02 3.00000E-03
1.70000E+01 1.60721E-04 1.14804E+02 3.00000E-03
1.80000E+01 1.39920E-04 9.97960E+01 3.00000E-03
1.90000E+01 1.21812E-04 8.67302E+01 3.00000E-03
2.00000E+01 1.06048E-04 7.53554E+01 3.00000E-03
2.10000E+01 9.23250E-05 6.54526E+01 3.00000E-03
2.20000E+01 8.03779E-05 5.68312E+01 3.00000E-03
2.30000E+01 6.99772E-05 4.93255E+01 3.00000E-03
2.40000E+01 6.09226E-05 4.27909E+01 3.00000E-03
2.50000E+01 5.30399E-05 3.71019E+01 3.00000E-03
2.75000E+01 3.73323E-05 2.59027E+01 3.00000E-03
3.00000E+01 2.60343E-05 1.80666E+01 3.00000E-03
3.25000E+01 1.81565E-05 1.26018E+01 3.00000E-03
3.50000E+01 1.26631E-05 8.79053E+00 3.00000E-03
3.75000E+01 8.83228E-06 6.13231E+00 3.00000E-03
4.00000E+01 6.16069E-06 4.27821E+00 3.00000E-03
4.25000E+01 4.29744E-06 2.98490E+00 3.00000E-03
4.50000E+01 2.99787E-06 2.08272E+00 3.00000E-03
4.75000E+01 2.09141E-06 1.45334E+00 3.00000E-03
5.00000E+01 1.45912E-06 1.01426E+00 3.00000E-03
5.50000E+01 7.10332E-07 4.94174E-01 3.00000E-03
6.00000E+01 3.45879E-07 2.40961E-01 3.00000E-03
6.50000E+01 1.68453E-07 1.17653E-01 3.00000E-03
7.00000E+01 8.20586E-08 5.75932E-02 3.00000E-03
7.50000E+01 3.99815E-08 2.83336E-02 3.00000E-03
8.00000E+01 1.94843E-08 1.40760E-02 3.00000E-03
8.50000E+01 9.49723E-09 7.12726E-03 3.00000E-03
9.00000E+01 4.63018E-09 3.73992E-03 3.00000E-03
9.50000E+01 2.25780E-09 2.08834E-03 3.00000E-03
1.00000E+02 1.00000E-09 1.28292E-03 3.00000E-03
1.05000E+02 9.52381E-10 7.82920E-04 3.00000E-03
1.10000E+02 9.09091E-10 2.82920E-04 3.00000E-03
1.15000E+02 8.69565E-10 1.00000E-05 3.00000E-03
1.20000E+02 8.33333E-10 0.00000E+00 3.00000E-03
