# Atmospheric Model 5405202101
# Col. #1          #2           #3            #4
# Alt [km]    rho [g/cm^3] thick [g/cm^2]    n-1
0.00000E+00 1.19359E-03 1.04805E+03 3.00000E-03
1.00000E+00 1.08322E-03 9.34303E+02 3.00000E-03
2.00000E+00 9.83069E-04 8.31070E+02 3.00000E-03
3.00000E+00 8.92190E-04 7.37380E+02 3.00000E-03
4.00000E+00 8.07375E-04 6.52388E+02 3.00000E-03
5.00000E+00 7.25772E-04 5.75804E+02 3.00000E-03
6.00000E+00 6.52426E-04 5.06959E+02 3.00000E-03
7.00000E+00 5.86499E-04 4.45071E+02 3.00000E-03
8.00000E+00 5.27241E-04 3.89437E+02 3.00000E-03
9.00000E+00 4.73976E-04 3.39423E+02 3.00000E-03
1.00000E+01 4.17767E-04 2.94713E+02 3.00000E-03
1.10000E+01 3.62608E-04 2.55759E+02 3.00000E-03
1.20000E+01 3.14736E-04 2.21948E+02 3.00000E-03
1.30000E+01 2.73190E-04 1.92601E+02 3.00000E-03
1.40000E+01 2.37131E-04 1.67128E+02 3.00000E-03
1.50000E+01 2.05835E-04 1.45016E+02 3.00000E-03
1.60000E+01 1.78672E-04 1.25823E+02 3.00000E-03
1.70000E+01 1.55097E-04 1.09162E+02 3.00000E-03
1.80000E+01 1.34634E-04 9.46999E+01 3.00000E-03
1.90000E+01 1.16873E-04 8.21455E+01 3.00000E-03
2.00000E+01 1.01456E-04 7.12472E+01 3.00000E-03
2.10000E+01 8.80748E-05 6.17864E+01 3.00000E-03
2.20000E+01 7.64595E-05 5.35734E+01 3.00000E-03
2.30000E+01 6.63771E-05 4.64435E+01 3.00000E-03
2.40000E+01 5.76251E-05 4.02537E+01 3.00000E-03
2.50000E+01 5.00278E-05 3.48800E+01 3.00000E-03
2.75000E+01 3.50534E-05 2.43478E+01 3.00000E-03
3.00000E+01 2.44553E-05 1.69886E+01 3.00000E-03
3.25000E+01 1.70622E-05 1.18542E+01 3.00000E-03
3.50000E+01 1.19046E-05 8.27200E+00 3.00000E-03
3.75000E+01 8.30636E-06 5.77256E+00 3.00000E-03
4.00000E+01 5.79596E-06 4.02856E+00 3.00000E-03
4.25000E+01 4.04443E-06 2.81162E+00 3.00000E-03
4.50000E+01 2.82232E-06 1.96241E+00 3.00000E-03
4.75000E+01 1.96958E-06 1.36981E+00 3.00000E-03
5.00000E+01 1.37454E-06 9.56241E-01 3.00000E-03
5.50000E+01 6.69543E-07 4.66176E-01 3.00000E-03
6.00000E+01 3.26188E-07 2.27447E-01 3.00000E-03
6.50000E+01 1.58937E-07 1.11135E-01 3.00000E-03
7.00000E+01 7.74551E-08 5.44569E-02 3.00000E-03
7.50000E+01 3.77522E-08 2.68341E-02 3.00000E-03
8.00000E+01 1.84035E-08 1.33697E-02 3.00000E-03
8.50000E+01 8.97277E-09 6.80559E-03 3.00000E-03
9.00000E+01 4.37540E-09 3.60499E-03 3.00000E-03
9.50000E+01 2.13389E-09 2.04418E-03 3.00000E-03
1.00000E+02 1.00000E-09 1.28292E-03 3.00000E-03
1.05000E+02 9.52381E-10 7.82920E-04 3.00000E-03
1.10000E+02 9.09091E-10 2.82920E-04 3.00000E-03
1.15000E+02 8.69565E-10 1.00000E-05 3.00000E-03
1.20000E+02 8.33333E-10 0.00000E+00 3.00000E-03
