# Atmospheric Model 5405202106
# Col. #1          #2           #3            #4
# Alt [km]    rho [g/cm^3] thick [g/cm^2]    n-1
0.00000E+00 1.25058E-03 1.05497E+03 3.00000E-03
1.00000E+00 1.12582E-03 9.36263E+02 3.00000E-03
2.00000E+00 1.01352E-03 8.29395E+02 3.00000E-03
3.00000E+00 9.12444E-04 7.33185E+02 3.00000E-03
4.00000E+00 8.19996E-04 6.46599E+02 3.00000E-03
5.00000E+00 7.34917E-04 5.68931E+02 3.00000E-03
6.00000E+00 6.58670E-04 4.99321E+02 3.00000E-03
7.00000E+00 5.90338E-04 4.36933E+02 3.00000E-03
8.00000E+00 5.29099E-04 3.81017E+02 3.00000E-03
9.00000E+00 4.74197E-04 3.30902E+02 3.00000E-03
1.00000E+01 4.14125E-04 2.86410E+02 3.00000E-03
1.10000E+01 3.58280E-04 2.47857E+02 3.00000E-03
1.20000E+01 3.09973E-04 2.14502E+02 3.00000E-03
1.30000E+01 2.68187E-04 1.85645E+02 3.00000E-03
1.40000E+01 2.32039E-04 1.60677E+02 3.00000E-03
1.50000E+01 2.00769E-04 1.39075E+02 3.00000E-03
1.60000E+01 1.73717E-04 1.20383E+02 3.00000E-03
1.70000E+01 1.50314E-04 1.04210E+02 3.00000E-03
1.80000E+01 1.30067E-04 9.02152E+01 3.00000E-03
1.90000E+01 1.12550E-04 7.81055E+01 3.00000E-03
2.00000E+01 9.73948E-05 6.76266E+01 3.00000E-03
2.10000E+01 8.42823E-05 5.85585E+01 3.00000E-03
2.20000E+01 7.29371E-05 5.07112E+01 3.00000E-03
2.30000E+01 6.31206E-05 4.39202E+01 3.00000E-03
2.40000E+01 5.46267E-05 3.80430E+01 3.00000E-03
2.50000E+01 4.72770E-05 3.29567E+01 3.00000E-03
2.75000E+01 3.29867E-05 2.30344E+01 3.00000E-03
3.00000E+01 2.30580E-05 1.61027E+01 3.00000E-03
3.25000E+01 1.61183E-05 1.12574E+01 3.00000E-03
3.50000E+01 1.12675E-05 7.87025E+00 3.00000E-03
3.75000E+01 7.87676E-06 5.50246E+00 3.00000E-03
4.00000E+01 5.50657E-06 3.84719E+00 3.00000E-03
4.25000E+01 3.84970E-06 2.68998E+00 3.00000E-03
4.50000E+01 2.69144E-06 1.88096E+00 3.00000E-03
4.75000E+01 1.88172E-06 1.31535E+00 3.00000E-03
5.00000E+01 1.31564E-06 9.19888E-01 3.00000E-03
5.50000E+01 6.43186E-07 4.50069E-01 3.00000E-03
6.00000E+01 3.14474E-07 2.20373E-01 3.00000E-03
6.50000E+01 1.53773E-07 1.08063E-01 3.00000E-03
7.00000E+01 7.52012E-08 5.31415E-02 3.00000E-03
7.50000E+01 3.67802E-08 2.62817E-02 3.00000E-03
8.00000E+01 1.79908E-08 1.31442E-02 3.00000E-03
8.50000E+01 8.80102E-09 6.71775E-03 3.00000E-03
9.00000E+01 4.30587E-09 3.57383E-03 3.00000E-03
9.50000E+01 2.10685E-09 2.03560E-03 3.00000E-03
1.00000E+02 1.00000E-09 1.28292E-03 3.00000E-03
1.05000E+02 9.52381E-10 7.82920E-04 3.00000E-03
1.10000E+02 9.09091E-10 2.82920E-04 3.00000E-03
1.15000E+02 8.69565E-10 1.00000E-05 3.00000E-03
1.20000E+02 8.33333E-10 0.00000E+00 3.00000E-03
