# Atmospheric Model 5405202102
# Col. #1          #2           #3            #4
# Alt [km]    rho [g/cm^3] thick [g/cm^2]    n-1
0.00000E+00 1.18471E-03 1.04780E+03 3.00000E-03
1.00000E+00 1.07560E-03 9.34876E+02 3.00000E-03
2.00000E+00 9.76546E-04 8.32349E+02 3.00000E-03
3.00000E+00 8.86630E-04 7.39263E+02 3.00000E-03
4.00000E+00 8.03022E-04 6.54776E+02 3.00000E-03
5.00000E+00 7.22797E-04 5.78555E+02 3.00000E-03
6.00000E+00 6.50593E-04 5.09949E+02 3.00000E-03
7.00000E+00 5.85606E-04 4.48196E+02 3.00000E-03
8.00000E+00 5.27115E-04 3.92612E+02 3.00000E-03
9.00000E+00 4.74470E-04 3.42579E+02 3.00000E-03
1.00000E+01 4.19595E-04 2.97738E+02 3.00000E-03
1.10000E+01 3.64535E-04 2.58597E+02 3.00000E-03
1.20000E+01 3.16702E-04 2.24591E+02 3.00000E-03
1.30000E+01 2.75148E-04 1.95047E+02 3.00000E-03
1.40000E+01 2.39048E-04 1.69379E+02 3.00000E-03
1.50000E+01 2.07686E-04 1.47079E+02 3.00000E-03
1.60000E+01 1.80440E-04 1.27705E+02 3.00000E-03
1.70000E+01 1.56769E-04 1.10872E+02 3.00000E-03
1.80000E+01 1.36205E-04 9.62478E+01 3.00000E-03
1.90000E+01 1.18339E-04 8.35415E+01 3.00000E-03
2.00000E+01 1.02817E-04 7.25019E+01 3.00000E-03
2.10000E+01 8.93316E-05 6.29103E+01 3.00000E-03
2.20000E+01 7.76156E-05 5.45767E+01 3.00000E-03
2.30000E+01 6.74367E-05 4.73360E+01 3.00000E-03
2.40000E+01 5.85931E-05 4.10449E+01 3.00000E-03
2.50000E+01 5.09096E-05 3.55787E+01 3.00000E-03
2.75000E+01 3.57319E-05 2.48509E+01 3.00000E-03
3.00000E+01 2.49404E-05 1.73476E+01 3.00000E-03
3.25000E+01 1.74088E-05 1.21102E+01 3.00000E-03
3.50000E+01 1.21520E-05 8.45444E+00 3.00000E-03
3.75000E+01 8.48290E-06 5.90250E+00 3.00000E-03
4.00000E+01 5.92183E-06 4.12105E+00 3.00000E-03
4.25000E+01 4.13412E-06 2.87741E+00 3.00000E-03
4.50000E+01 2.88620E-06 2.00920E+00 3.00000E-03
4.75000E+01 2.01504E-06 1.40305E+00 3.00000E-03
5.00000E+01 1.40688E-06 9.79856E-01 3.00000E-03
5.50000E+01 6.85886E-07 4.78069E-01 3.00000E-03
6.00000E+01 3.34432E-07 2.33421E-01 3.00000E-03
6.50000E+01 1.63089E-07 1.14126E-01 3.00000E-03
7.00000E+01 7.95431E-08 5.59465E-02 3.00000E-03
7.50000E+01 3.88008E-08 2.75692E-02 3.00000E-03
8.00000E+01 1.89295E-08 1.37260E-02 3.00000E-03
8.50000E+01 9.23626E-09 6.97201E-03 3.00000E-03
9.00000E+01 4.50727E-09 3.67633E-03 3.00000E-03
9.50000E+01 2.19983E-09 2.06796E-03 3.00000E-03
1.00000E+02 1.00000E-09 1.28292E-03 3.00000E-03
1.05000E+02 9.52381E-10 7.82920E-04 3.00000E-03
1.10000E+02 9.09091E-10 2.82920E-04 3.00000E-03
1.15000E+02 8.69565E-10 1.00000E-05 3.00000E-03
1.20000E+02 8.33333E-10 0.00000E+00 3.00000E-03
