# Atmospheric Model 54052104
# Col. #1          #2           #3            #4
# Alt [km]    rho [g/cm^3] thick [g/cm^2]    n-1
0.00000E+00 1.20060E-03 1.04916E+03 3.00000E-03
1.00000E+00 1.08840E-03 9.34806E+02 3.00000E-03
2.00000E+00 9.86687E-04 8.31135E+02 3.00000E-03
3.00000E+00 8.94493E-04 7.37151E+02 3.00000E-03
4.00000E+00 8.08753E-04 6.51984E+02 3.00000E-03
5.00000E+00 7.26996E-04 5.75269E+02 3.00000E-03
6.00000E+00 6.53507E-04 5.06309E+02 3.00000E-03
7.00000E+00 5.87450E-04 4.44320E+02 3.00000E-03
8.00000E+00 5.28074E-04 3.88597E+02 3.00000E-03
9.00000E+00 4.74703E-04 3.38505E+02 3.00000E-03
1.00000E+01 4.17839E-04 2.93750E+02 3.00000E-03
1.10000E+01 3.62472E-04 2.54801E+02 3.00000E-03
1.20000E+01 3.14446E-04 2.21012E+02 3.00000E-03
1.30000E+01 2.72785E-04 1.91699E+02 3.00000E-03
1.40000E+01 2.36646E-04 1.66271E+02 3.00000E-03
1.50000E+01 2.05297E-04 1.44211E+02 3.00000E-03
1.60000E+01 1.78103E-04 1.25073E+02 3.00000E-03
1.70000E+01 1.54512E-04 1.08470E+02 3.00000E-03
1.80000E+01 1.34047E-04 9.40662E+01 3.00000E-03
1.90000E+01 1.16294E-04 8.15702E+01 3.00000E-03
2.00000E+01 1.00893E-04 7.07290E+01 3.00000E-03
2.10000E+01 8.75329E-05 6.13235E+01 3.00000E-03
2.20000E+01 7.59424E-05 5.31635E+01 3.00000E-03
2.30000E+01 6.58873E-05 4.60839E+01 3.00000E-03
2.40000E+01 5.71640E-05 3.99416E+01 3.00000E-03
2.50000E+01 4.95962E-05 3.46126E+01 3.00000E-03
2.75000E+01 3.47218E-05 2.41782E+01 3.00000E-03
3.00000E+01 2.42458E-05 1.68855E+01 3.00000E-03
3.25000E+01 1.69313E-05 1.17929E+01 3.00000E-03
3.50000E+01 1.18239E-05 8.23666E+00 3.00000E-03
3.75000E+01 8.25755E-06 5.75309E+00 3.00000E-03
4.00000E+01 5.76711E-06 4.01860E+00 3.00000E-03
4.25000E+01 4.02794E-06 2.80720E+00 3.00000E-03
4.50000E+01 2.81336E-06 1.96111E+00 3.00000E-03
4.75000E+01 1.96510E-06 1.37013E+00 3.00000E-03
5.00000E+01 1.37266E-06 9.57329E-01 3.00000E-03
5.50000E+01 6.69837E-07 4.67544E-01 3.00000E-03
6.00000E+01 3.26923E-07 2.28519E-01 3.00000E-03
6.50000E+01 1.59584E-07 1.11852E-01 3.00000E-03
7.00000E+01 7.79119E-08 5.48980E-02 3.00000E-03
7.50000E+01 3.80439E-08 2.70901E-02 3.00000E-03
8.00000E+01 1.85794E-08 1.35108E-02 3.00000E-03
8.50000E+01 9.07500E-09 6.87866E-03 3.00000E-03
9.00000E+01 4.43329E-09 3.63901E-03 3.00000E-03
9.50000E+01 2.16607E-09 2.05628E-03 3.00000E-03
1.00000E+02 1.00000E-09 1.28292E-03 3.00000E-03
1.05000E+02 9.52381E-10 7.82920E-04 3.00000E-03
1.10000E+02 9.09091E-10 2.82920E-04 3.00000E-03
1.15000E+02 8.69565E-10 1.00000E-05 3.00000E-03
1.20000E+02 8.33333E-10 0.00000E+00 3.00000E-03
