# Atmospheric Model 54052103
# Col. #1          #2           #3            #4
# Alt [km]    rho [g/cm^3] thick [g/cm^2]    n-1
0.00000E+00 1.18907E-03 1.04855E+03 3.00000E-03
1.00000E+00 1.07924E-03 9.35223E+02 3.00000E-03
2.00000E+00 9.79553E-04 8.32365E+02 3.00000E-03
3.00000E+00 8.89088E-04 7.39006E+02 3.00000E-03
4.00000E+00 8.05076E-04 6.54296E+02 3.00000E-03
5.00000E+00 7.24662E-04 5.77880E+02 3.00000E-03
6.00000E+00 6.52283E-04 5.09096E+02 3.00000E-03
7.00000E+00 5.87137E-04 4.47182E+02 3.00000E-03
8.00000E+00 5.28499E-04 3.91452E+02 3.00000E-03
9.00000E+00 4.75720E-04 3.41287E+02 3.00000E-03
1.00000E+01 4.19944E-04 2.96371E+02 3.00000E-03
1.10000E+01 3.64525E-04 2.57213E+02 3.00000E-03
1.20000E+01 3.16426E-04 2.23223E+02 3.00000E-03
1.30000E+01 2.74678E-04 1.93717E+02 3.00000E-03
1.40000E+01 2.38443E-04 1.68103E+02 3.00000E-03
1.50000E+01 2.06992E-04 1.45869E+02 3.00000E-03
1.60000E+01 1.79693E-04 1.26567E+02 3.00000E-03
1.70000E+01 1.55997E-04 1.09810E+02 3.00000E-03
1.80000E+01 1.35428E-04 9.52630E+01 3.00000E-03
1.90000E+01 1.17574E-04 8.26339E+01 3.00000E-03
2.00000E+01 1.02075E-04 7.16698E+01 3.00000E-03
2.10000E+01 8.86210E-05 6.21508E+01 3.00000E-03
2.20000E+01 7.69418E-05 5.38865E+01 3.00000E-03
2.30000E+01 6.68029E-05 4.67112E+01 3.00000E-03
2.40000E+01 5.80012E-05 4.04813E+01 3.00000E-03
2.50000E+01 5.03601E-05 3.50723E+01 3.00000E-03
2.75000E+01 3.52911E-05 2.44687E+01 3.00000E-03
3.00000E+01 2.46050E-05 1.70618E+01 3.00000E-03
3.25000E+01 1.71554E-05 1.18976E+01 3.00000E-03
3.50000E+01 1.19618E-05 8.29690E+00 3.00000E-03
3.75000E+01 8.34089E-06 5.78621E+00 3.00000E-03
4.00000E+01 5.81628E-06 4.03549E+00 3.00000E-03
4.25000E+01 4.05599E-06 2.81466E+00 3.00000E-03
4.50000E+01 2.82857E-06 1.96329E+00 3.00000E-03
4.75000E+01 1.97267E-06 1.36954E+00 3.00000E-03
5.00000E+01 1.37582E-06 9.55456E-01 3.00000E-03
5.50000E+01 6.69311E-07 4.65211E-01 3.00000E-03
6.00000E+01 3.25663E-07 2.26697E-01 3.00000E-03
6.50000E+01 1.58482E-07 1.10637E-01 3.00000E-03
7.00000E+01 7.71369E-08 5.41529E-02 3.00000E-03
7.50000E+01 3.75505E-08 2.66587E-02 3.00000E-03
8.00000E+01 1.82827E-08 1.32735E-02 3.00000E-03
8.50000E+01 8.90295E-09 6.75599E-03 3.00000E-03
9.00000E+01 4.33608E-09 3.58200E-03 3.00000E-03
9.50000E+01 2.11217E-09 2.03604E-03 3.00000E-03
1.00000E+02 1.00000E-09 1.28292E-03 3.00000E-03
1.05000E+02 9.52381E-10 7.82920E-04 3.00000E-03
1.10000E+02 9.09091E-10 2.82920E-04 3.00000E-03
1.15000E+02 8.69565E-10 1.00000E-05 3.00000E-03
1.20000E+02 8.33333E-10 0.00000E+00 3.00000E-03
