# Atmospheric Model 55022104
# Col. #1          #2           #3            #4
# Alt [km]    rho [g/cm^3] thick [g/cm^2]    n-1
0.00000E+00 1.18789E-03 1.05787E+03 3.00000E-03
1.00000E+00 1.07697E-03 9.44717E+02 3.00000E-03
2.00000E+00 9.76436E-04 8.42129E+02 3.00000E-03
3.00000E+00 8.85305E-04 7.49116E+02 3.00000E-03
4.00000E+00 8.01092E-04 6.64803E+02 3.00000E-03
5.00000E+00 7.20274E-04 5.88806E+02 3.00000E-03
6.00000E+00 6.47611E-04 5.20477E+02 3.00000E-03
7.00000E+00 5.82280E-04 4.59040E+02 3.00000E-03
8.00000E+00 5.23541E-04 4.03801E+02 3.00000E-03
9.00000E+00 4.70729E-04 3.54134E+02 3.00000E-03
1.00000E+01 4.18909E-04 3.09561E+02 3.00000E-03
1.10000E+01 3.66313E-04 2.70359E+02 3.00000E-03
1.20000E+01 3.20322E-04 2.36078E+02 3.00000E-03
1.30000E+01 2.80107E-04 2.06102E+02 3.00000E-03
1.40000E+01 2.44942E-04 1.79889E+02 3.00000E-03
1.50000E+01 2.14193E-04 1.56966E+02 3.00000E-03
1.60000E+01 1.87304E-04 1.36921E+02 3.00000E-03
1.70000E+01 1.63792E-04 1.19393E+02 3.00000E-03
1.80000E+01 1.43233E-04 1.04065E+02 3.00000E-03
1.90000E+01 1.25254E-04 9.06604E+01 3.00000E-03
2.00000E+01 1.09533E-04 7.89386E+01 3.00000E-03
2.10000E+01 9.57854E-05 6.86881E+01 3.00000E-03
2.20000E+01 8.37638E-05 5.97240E+01 3.00000E-03
2.30000E+01 7.32513E-05 5.18850E+01 3.00000E-03
2.40000E+01 6.40585E-05 4.50298E+01 3.00000E-03
2.50000E+01 5.60196E-05 3.90349E+01 3.00000E-03
2.75000E+01 3.96301E-05 2.71563E+01 3.00000E-03
3.00000E+01 2.75095E-05 1.88559E+01 3.00000E-03
3.25000E+01 1.90978E-05 1.30939E+01 3.00000E-03
3.50000E+01 1.32595E-05 9.09354E+00 3.00000E-03
3.75000E+01 9.20684E-06 6.31600E+00 3.00000E-03
4.00000E+01 6.39347E-06 4.38730E+00 3.00000E-03
4.25000E+01 4.44022E-06 3.04791E+00 3.00000E-03
4.50000E+01 3.08399E-06 2.11766E+00 3.00000E-03
4.75000E+01 2.14221E-06 1.47153E+00 3.00000E-03
5.00000E+01 1.48817E-06 1.02268E+00 3.00000E-03
5.50000E+01 7.18382E-07 4.94218E-01 3.00000E-03
6.00000E+01 3.46911E-07 2.39071E-01 3.00000E-03
6.50000E+01 1.67586E-07 1.15839E-01 3.00000E-03
7.00000E+01 8.09866E-08 5.62993E-02 3.00000E-03
7.50000E+01 3.91510E-08 2.75217E-02 3.00000E-03
8.00000E+01 1.89332E-08 1.36077E-02 3.00000E-03
8.50000E+01 9.15918E-09 6.87795E-03 3.00000E-03
9.00000E+01 4.43237E-09 3.62187E-03 3.00000E-03
9.50000E+01 2.14566E-09 2.04593E-03 3.00000E-03
1.00000E+02 1.00000E-09 1.28292E-03 3.00000E-03
1.05000E+02 9.52381E-10 7.82920E-04 3.00000E-03
1.10000E+02 9.09091E-10 2.82920E-04 3.00000E-03
1.15000E+02 8.69565E-10 1.00000E-05 3.00000E-03
1.20000E+02 8.33333E-10 0.00000E+00 3.00000E-03
