# Atmospheric Model 5502202103
# Col. #1          #2           #3            #4
# Alt [km]    rho [g/cm^3] thick [g/cm^2]    n-1
0.00000E+00 1.16682E-03 1.05596E+03 3.00000E-03
1.00000E+00 1.06095E-03 9.44656E+02 3.00000E-03
2.00000E+00 9.64716E-04 8.43449E+02 3.00000E-03
3.00000E+00 8.77227E-04 7.51421E+02 3.00000E-03
4.00000E+00 7.95898E-04 6.67759E+02 3.00000E-03
5.00000E+00 7.16371E-04 5.92215E+02 3.00000E-03
6.00000E+00 6.44790E-04 5.24220E+02 3.00000E-03
7.00000E+00 5.80363E-04 4.63019E+02 3.00000E-03
8.00000E+00 5.22374E-04 4.07933E+02 3.00000E-03
9.00000E+00 4.70180E-04 3.58351E+02 3.00000E-03
1.00000E+01 4.19600E-04 3.13781E+02 3.00000E-03
1.10000E+01 3.67578E-04 2.74480E+02 3.00000E-03
1.20000E+01 3.22006E-04 2.40051E+02 3.00000E-03
1.30000E+01 2.82085E-04 2.09890E+02 3.00000E-03
1.40000E+01 2.47113E-04 1.83469E+02 3.00000E-03
1.50000E+01 2.16478E-04 1.60323E+02 3.00000E-03
1.60000E+01 1.89640E-04 1.40047E+02 3.00000E-03
1.70000E+01 1.66131E-04 1.22284E+02 3.00000E-03
1.80000E+01 1.45536E-04 1.06724E+02 3.00000E-03
1.90000E+01 1.27494E-04 9.30921E+01 3.00000E-03
2.00000E+01 1.11689E-04 8.11504E+01 3.00000E-03
2.10000E+01 9.78439E-05 7.06890E+01 3.00000E-03
2.20000E+01 8.57150E-05 6.15244E+01 3.00000E-03
2.30000E+01 7.50897E-05 5.34959E+01 3.00000E-03
2.40000E+01 6.57817E-05 4.64626E+01 3.00000E-03
2.50000E+01 5.76277E-05 4.03011E+01 3.00000E-03
2.75000E+01 4.08831E-05 2.80596E+01 3.00000E-03
3.00000E+01 2.83927E-05 1.94949E+01 3.00000E-03
3.25000E+01 1.97212E-05 1.35464E+01 3.00000E-03
3.50000E+01 1.37001E-05 9.41439E+00 3.00000E-03
3.75000E+01 9.51872E-06 6.54372E+00 3.00000E-03
4.00000E+01 6.61448E-06 4.54907E+00 3.00000E-03
4.25000E+01 4.59700E-06 3.16291E+00 3.00000E-03
4.50000E+01 3.19532E-06 2.19948E+00 3.00000E-03
4.75000E+01 2.22134E-06 1.52977E+00 3.00000E-03
5.00000E+01 1.54446E-06 1.06416E+00 3.00000E-03
5.50000E+01 7.46916E-07 5.15274E-01 3.00000E-03
6.00000E+01 3.61408E-07 2.49764E-01 3.00000E-03
6.50000E+01 1.74963E-07 1.21263E-01 3.00000E-03
7.00000E+01 8.47452E-08 5.90402E-02 3.00000E-03
7.50000E+01 4.10672E-08 2.88953E-02 3.00000E-03
8.00000E+01 1.99104E-08 1.42842E-02 3.00000E-03
8.50000E+01 9.65756E-09 7.19884E-03 3.00000E-03
9.00000E+01 4.68650E-09 3.76143E-03 3.00000E-03
9.50000E+01 2.27520E-09 2.09304E-03 3.00000E-03
1.00000E+02 1.00000E-09 1.28292E-03 3.00000E-03
1.05000E+02 9.52381E-10 7.82920E-04 3.00000E-03
1.10000E+02 9.09091E-10 2.82920E-04 3.00000E-03
1.15000E+02 8.69565E-10 1.00000E-05 3.00000E-03
1.20000E+02 8.33333E-10 0.00000E+00 3.00000E-03
