# Atmospheric Model 55022106
# Col. #1          #2           #3            #4
# Alt [km]    rho [g/cm^3] thick [g/cm^2]    n-1
0.00000E+00 1.19788E-03 1.06028E+03 3.00000E-03
1.00000E+00 1.08503E-03 9.46224E+02 3.00000E-03
2.00000E+00 9.82852E-04 8.42914E+02 3.00000E-03
3.00000E+00 8.90321E-04 7.49332E+02 3.00000E-03
4.00000E+00 8.05106E-04 6.64576E+02 3.00000E-03
5.00000E+00 7.23757E-04 5.88205E+02 3.00000E-03
6.00000E+00 6.50631E-04 5.19550E+02 3.00000E-03
7.00000E+00 5.84896E-04 4.57832E+02 3.00000E-03
8.00000E+00 5.25804E-04 4.02350E+02 3.00000E-03
9.00000E+00 4.72684E-04 3.52472E+02 3.00000E-03
1.00000E+01 4.20040E-04 3.07734E+02 3.00000E-03
1.10000E+01 3.66792E-04 2.68453E+02 3.00000E-03
1.20000E+01 3.20296E-04 2.34151E+02 3.00000E-03
1.30000E+01 2.79695E-04 2.04197E+02 3.00000E-03
1.40000E+01 2.44242E-04 1.78040E+02 3.00000E-03
1.50000E+01 2.13283E-04 1.55199E+02 3.00000E-03
1.60000E+01 1.86250E-04 1.35253E+02 3.00000E-03
1.70000E+01 1.62644E-04 1.17835E+02 3.00000E-03
1.80000E+01 1.42030E-04 1.02624E+02 3.00000E-03
1.90000E+01 1.24030E-04 8.93416E+01 3.00000E-03
2.00000E+01 1.08311E-04 7.77423E+01 3.00000E-03
2.10000E+01 9.45849E-05 6.76130E+01 3.00000E-03
2.20000E+01 8.25986E-05 5.87674E+01 3.00000E-03
2.30000E+01 7.21316E-05 5.10427E+01 3.00000E-03
2.40000E+01 6.29913E-05 4.42969E+01 3.00000E-03
2.50000E+01 5.50094E-05 3.84058E+01 3.00000E-03
2.75000E+01 3.88724E-05 2.67553E+01 3.00000E-03
3.00000E+01 2.70296E-05 1.86071E+01 3.00000E-03
3.25000E+01 1.87959E-05 1.29411E+01 3.00000E-03
3.50000E+01 1.30710E-05 9.00098E+00 3.00000E-03
3.75000E+01 9.09030E-06 6.26088E+00 3.00000E-03
4.00000E+01 6.32225E-06 4.35522E+00 3.00000E-03
4.25000E+01 4.39732E-06 3.02981E+00 3.00000E-03
4.50000E+01 3.05864E-06 2.10792E+00 3.00000E-03
4.75000E+01 2.12761E-06 1.46666E+00 3.00000E-03
5.00000E+01 1.48005E-06 1.02059E+00 3.00000E-03
5.50000E+01 7.16343E-07 4.94396E-01 3.00000E-03
6.00000E+01 3.46782E-07 2.39694E-01 3.00000E-03
6.50000E+01 1.67913E-07 1.16380E-01 3.00000E-03
7.00000E+01 8.13216E-08 5.66660E-02 3.00000E-03
7.50000E+01 3.93929E-08 2.77433E-02 3.00000E-03
8.00000E+01 1.90863E-08 1.37315E-02 3.00000E-03
8.50000E+01 9.24946E-09 6.94203E-03 3.00000E-03
9.00000E+01 4.48334E-09 3.65146E-03 3.00000E-03
9.50000E+01 2.17358E-09 2.05633E-03 3.00000E-03
1.00000E+02 1.00000E-09 1.28292E-03 3.00000E-03
1.05000E+02 9.52381E-10 7.82920E-04 3.00000E-03
1.10000E+02 9.09091E-10 2.82920E-04 3.00000E-03
1.15000E+02 8.69565E-10 1.00000E-05 3.00000E-03
1.20000E+02 8.33333E-10 0.00000E+00 3.00000E-03
