# Atmospheric Model 5502202107
# Col. #1          #2           #3            #4
# Alt [km]    rho [g/cm^3] thick [g/cm^2]    n-1
0.00000E+00 1.21322E-03 1.06305E+03 3.00000E-03
1.00000E+00 1.09481E-03 9.47751E+02 3.00000E-03
2.00000E+00 9.88006E-04 8.43702E+02 3.00000E-03
3.00000E+00 8.91674E-04 7.49801E+02 3.00000E-03
4.00000E+00 8.04125E-04 6.65061E+02 3.00000E-03
5.00000E+00 7.23290E-04 5.88762E+02 3.00000E-03
6.00000E+00 6.50589E-04 5.20132E+02 3.00000E-03
7.00000E+00 5.85201E-04 4.58400E+02 3.00000E-03
8.00000E+00 5.26392E-04 4.02872E+02 3.00000E-03
9.00000E+00 4.73498E-04 3.52925E+02 3.00000E-03
1.00000E+01 4.21128E-04 3.08089E+02 3.00000E-03
1.10000E+01 3.67642E-04 2.68711E+02 3.00000E-03
1.20000E+01 3.20951E-04 2.34334E+02 3.00000E-03
1.30000E+01 2.80192E-04 2.04323E+02 3.00000E-03
1.40000E+01 2.44612E-04 1.78123E+02 3.00000E-03
1.50000E+01 2.13552E-04 1.55250E+02 3.00000E-03
1.60000E+01 1.86437E-04 1.35281E+02 3.00000E-03
1.70000E+01 1.62766E-04 1.17848E+02 3.00000E-03
1.80000E+01 1.42102E-04 1.02628E+02 3.00000E-03
1.90000E+01 1.24062E-04 8.93400E+01 3.00000E-03
2.00000E+01 1.08313E-04 7.77391E+01 3.00000E-03
2.10000E+01 9.45646E-05 6.76108E+01 3.00000E-03
2.20000E+01 8.25617E-05 5.87680E+01 3.00000E-03
2.30000E+01 7.20830E-05 5.10477E+01 3.00000E-03
2.40000E+01 6.29347E-05 4.43071E+01 3.00000E-03
2.50000E+01 5.49480E-05 3.84220E+01 3.00000E-03
2.75000E+01 3.88405E-05 2.67853E+01 3.00000E-03
3.00000E+01 2.70263E-05 1.86411E+01 3.00000E-03
3.25000E+01 1.88067E-05 1.29739E+01 3.00000E-03
3.50000E+01 1.30877E-05 9.03024E+00 3.00000E-03
3.75000E+01 9.10838E-06 6.28572E+00 3.00000E-03
4.00000E+01 6.33932E-06 4.37563E+00 3.00000E-03
4.25000E+01 4.41234E-06 3.04620E+00 3.00000E-03
4.50000E+01 3.07128E-06 2.12085E+00 3.00000E-03
4.75000E+01 2.13794E-06 1.47673E+00 3.00000E-03
5.00000E+01 1.48832E-06 1.02834E+00 3.00000E-03
5.50000E+01 7.21388E-07 4.98871E-01 3.00000E-03
6.00000E+01 3.49736E-07 2.42209E-01 3.00000E-03
6.50000E+01 1.69594E-07 1.17765E-01 3.00000E-03
7.00000E+01 8.22576E-08 5.74133E-02 3.00000E-03
7.50000E+01 3.99060E-08 2.81384E-02 3.00000E-03
8.00000E+01 1.93640E-08 1.39347E-02 3.00000E-03
8.50000E+01 9.39830E-09 7.04185E-03 3.00000E-03
9.00000E+01 4.56244E-09 3.69609E-03 3.00000E-03
9.50000E+01 2.21533E-09 2.07172E-03 3.00000E-03
1.00000E+02 1.00000E-09 1.28292E-03 3.00000E-03
1.05000E+02 9.52381E-10 7.82920E-04 3.00000E-03
1.10000E+02 9.09091E-10 2.82920E-04 3.00000E-03
1.15000E+02 8.69565E-10 1.00000E-05 3.00000E-03
1.20000E+02 8.33333E-10 0.00000E+00 3.00000E-03
