# Atmospheric Model 3401202104
# Col. #1          #2           #3            #4
# Alt [km]    rho [g/cm^3] thick [g/cm^2]    n-1
0.00000E+00 1.22065E-03 1.04556E+03 3.00000E-03
1.00000E+00 1.10509E-03 9.29371E+02 3.00000E-03
2.00000E+00 1.00048E-03 8.24179E+02 3.00000E-03
3.00000E+00 9.05783E-04 7.28944E+02 3.00000E-03
4.00000E+00 8.17581E-04 6.42770E+02 3.00000E-03
5.00000E+00 7.34118E-04 5.65260E+02 3.00000E-03
6.00000E+00 6.59178E-04 4.95662E+02 3.00000E-03
7.00000E+00 5.91890E-04 4.33169E+02 3.00000E-03
8.00000E+00 5.31472E-04 3.77055E+02 3.00000E-03
9.00000E+00 4.77224E-04 3.26669E+02 3.00000E-03
1.00000E+01 4.15673E-04 2.81930E+02 3.00000E-03
1.10000E+01 3.58486E-04 2.43293E+02 3.00000E-03
1.20000E+01 3.09169E-04 2.09971E+02 3.00000E-03
1.30000E+01 2.66640E-04 1.81233E+02 3.00000E-03
1.40000E+01 2.29962E-04 1.56448E+02 3.00000E-03
1.50000E+01 1.98332E-04 1.35072E+02 3.00000E-03
1.60000E+01 1.71054E-04 1.16637E+02 3.00000E-03
1.70000E+01 1.47528E-04 1.00737E+02 3.00000E-03
1.80000E+01 1.27240E-04 8.70232E+01 3.00000E-03
1.90000E+01 1.09742E-04 7.51957E+01 3.00000E-03
2.00000E+01 9.46515E-05 6.49946E+01 3.00000E-03
2.10000E+01 8.16368E-05 5.61962E+01 3.00000E-03
2.20000E+01 7.04122E-05 4.86076E+01 3.00000E-03
2.30000E+01 6.07314E-05 4.20624E+01 3.00000E-03
2.40000E+01 5.23821E-05 3.64170E+01 3.00000E-03
2.50000E+01 4.51810E-05 3.15477E+01 3.00000E-03
2.75000E+01 3.13913E-05 2.20964E+01 3.00000E-03
3.00000E+01 2.20063E-05 1.54910E+01 3.00000E-03
3.25000E+01 1.54273E-05 1.08604E+01 3.00000E-03
3.50000E+01 1.08153E-05 7.61414E+00 3.00000E-03
3.75000E+01 7.58221E-06 5.33832E+00 3.00000E-03
4.00000E+01 5.31565E-06 3.74282E+00 3.00000E-03
4.25000E+01 3.72668E-06 2.62426E+00 3.00000E-03
4.50000E+01 2.61273E-06 1.84006E+00 3.00000E-03
4.75000E+01 1.83177E-06 1.29027E+00 3.00000E-03
5.00000E+01 1.28426E-06 9.04803E-01 3.00000E-03
5.50000E+01 6.31301E-07 4.45074E-01 3.00000E-03
6.00000E+01 3.10342E-07 2.19082E-01 3.00000E-03
6.50000E+01 1.52569E-07 1.07984E-01 3.00000E-03
7.00000E+01 7.50088E-08 5.33650E-02 3.00000E-03
7.50000E+01 3.68791E-08 2.65118E-02 3.00000E-03
8.00000E+01 1.81330E-08 1.33087E-02 3.00000E-03
8.50000E+01 8.91616E-09 6.81682E-03 3.00000E-03
9.00000E+01 4.38438E-09 3.62462E-03 3.00000E-03
9.50000E+01 2.15605E-09 2.05487E-03 3.00000E-03
1.00000E+02 1.00000E-09 1.28292E-03 3.00000E-03
1.05000E+02 9.52381E-10 7.82920E-04 3.00000E-03
1.10000E+02 9.09091E-10 2.82920E-04 3.00000E-03
1.15000E+02 8.69565E-10 1.00000E-05 3.00000E-03
1.20000E+02 8.33333E-10 0.00000E+00 3.00000E-03
