# Atmospheric Model 34012102
# Col. #1          #2           #3            #4
# Alt [km]    rho [g/cm^3] thick [g/cm^2]    n-1
0.00000E+00 1.23479E-03 1.05087E+03 3.00000E-03
1.00000E+00 1.11486E-03 9.33494E+02 3.00000E-03
2.00000E+00 1.00659E-03 8.27514E+02 3.00000E-03
3.00000E+00 9.08850E-04 7.31825E+02 3.00000E-03
4.00000E+00 8.18873E-04 6.45463E+02 3.00000E-03
5.00000E+00 7.35366E-04 5.67826E+02 3.00000E-03
6.00000E+00 6.60380E-04 4.98106E+02 3.00000E-03
7.00000E+00 5.93045E-04 4.35495E+02 3.00000E-03
8.00000E+00 5.32580E-04 3.79268E+02 3.00000E-03
9.00000E+00 4.78247E-04 3.28774E+02 3.00000E-03
1.00000E+01 4.16937E-04 2.83928E+02 3.00000E-03
1.10000E+01 3.59798E-04 2.45161E+02 3.00000E-03
1.20000E+01 3.10495E-04 2.11707E+02 3.00000E-03
1.30000E+01 2.67952E-04 1.82837E+02 3.00000E-03
1.40000E+01 2.31242E-04 1.57922E+02 3.00000E-03
1.50000E+01 1.99564E-04 1.36421E+02 3.00000E-03
1.60000E+01 1.72229E-04 1.17865E+02 3.00000E-03
1.70000E+01 1.48640E-04 1.01851E+02 3.00000E-03
1.80000E+01 1.28284E-04 8.80293E+01 3.00000E-03
1.90000E+01 1.10717E-04 7.61008E+01 3.00000E-03
2.00000E+01 9.55579E-05 6.58057E+01 3.00000E-03
2.10000E+01 8.24753E-05 5.69200E+01 3.00000E-03
2.20000E+01 7.11850E-05 4.92509E+01 3.00000E-03
2.30000E+01 6.14412E-05 4.26315E+01 3.00000E-03
2.40000E+01 5.30319E-05 3.69182E+01 3.00000E-03
2.50000E+01 4.57744E-05 3.19868E+01 3.00000E-03
2.75000E+01 3.18708E-05 2.24002E+01 3.00000E-03
3.00000E+01 2.23303E-05 1.56957E+01 3.00000E-03
3.25000E+01 1.56460E-05 1.09981E+01 3.00000E-03
3.50000E+01 1.09628E-05 7.70660E+00 3.00000E-03
3.75000E+01 7.68148E-06 5.40033E+00 3.00000E-03
4.00000E+01 5.38240E-06 3.78435E+00 3.00000E-03
4.25000E+01 3.77151E-06 2.65202E+00 3.00000E-03
4.50000E+01 2.64279E-06 1.85858E+00 3.00000E-03
4.75000E+01 1.85189E-06 1.30260E+00 3.00000E-03
5.00000E+01 1.29771E-06 9.12994E-01 3.00000E-03
5.50000E+01 6.37267E-07 4.48659E-01 3.00000E-03
6.00000E+01 3.12964E-07 2.20631E-01 3.00000E-03
6.50000E+01 1.53708E-07 1.08643E-01 3.00000E-03
7.00000E+01 7.54967E-08 5.36394E-02 3.00000E-03
7.50000E+01 3.70840E-08 2.66227E-02 3.00000E-03
8.00000E+01 1.82169E-08 1.33517E-02 3.00000E-03
8.50000E+01 8.94928E-09 6.83242E-03 3.00000E-03
9.00000E+01 4.39673E-09 3.62963E-03 3.00000E-03
9.50000E+01 2.16023E-09 2.05607E-03 3.00000E-03
1.00000E+02 1.00000E-09 1.28292E-03 3.00000E-03
1.05000E+02 9.52381E-10 7.82920E-04 3.00000E-03
1.10000E+02 9.09091E-10 2.82920E-04 3.00000E-03
1.15000E+02 8.69565E-10 1.00000E-05 3.00000E-03
1.20000E+02 8.33333E-10 0.00000E+00 3.00000E-03
