# Atmospheric Model 34012105
# Col. #1          #2           #3            #4
# Alt [km]    rho [g/cm^3] thick [g/cm^2]    n-1
0.00000E+00 1.20236E-03 1.05010E+03 3.00000E-03
1.00000E+00 1.09113E-03 9.35514E+02 3.00000E-03
2.00000E+00 9.90203E-04 8.31529E+02 3.00000E-03
3.00000E+00 8.98623E-04 7.37162E+02 3.00000E-03
4.00000E+00 8.12840E-04 6.51565E+02 3.00000E-03
5.00000E+00 7.29797E-04 5.74508E+02 3.00000E-03
6.00000E+00 6.55242E-04 5.05323E+02 3.00000E-03
7.00000E+00 5.88308E-04 4.43206E+02 3.00000E-03
8.00000E+00 5.28214E-04 3.87433E+02 3.00000E-03
9.00000E+00 4.74262E-04 3.37358E+02 3.00000E-03
1.00000E+01 4.17080E-04 2.92679E+02 3.00000E-03
1.10000E+01 3.61692E-04 2.53807E+02 3.00000E-03
1.20000E+01 3.13665E-04 2.20096E+02 3.00000E-03
1.30000E+01 2.72019E-04 1.90861E+02 3.00000E-03
1.40000E+01 2.35907E-04 1.65508E+02 3.00000E-03
1.50000E+01 2.04592E-04 1.43520E+02 3.00000E-03
1.60000E+01 1.77437E-04 1.24451E+02 3.00000E-03
1.70000E+01 1.53888E-04 1.07912E+02 3.00000E-03
1.80000E+01 1.33467E-04 9.35690E+01 3.00000E-03
1.90000E+01 1.15758E-04 8.11288E+01 3.00000E-03
2.00000E+01 1.00400E-04 7.03391E+01 3.00000E-03
2.10000E+01 8.70806E-05 6.09809E+01 3.00000E-03
2.20000E+01 7.55297E-05 5.28641E+01 3.00000E-03
2.30000E+01 6.55120E-05 4.58239E+01 3.00000E-03
2.40000E+01 5.68239E-05 3.97174E+01 3.00000E-03
2.50000E+01 4.92887E-05 3.44207E+01 3.00000E-03
2.75000E+01 3.45081E-05 2.40525E+01 3.00000E-03
3.00000E+01 2.41056E-05 1.68033E+01 3.00000E-03
3.25000E+01 1.68394E-05 1.17394E+01 3.00000E-03
3.50000E+01 1.17638E-05 8.20187E+00 3.00000E-03
3.75000E+01 8.21834E-06 5.73054E+00 3.00000E-03
4.00000E+01 5.74158E-06 4.00402E+00 3.00000E-03
4.25000E+01 4.01137E-06 2.79781E+00 3.00000E-03
4.50000E+01 2.80263E-06 1.95507E+00 3.00000E-03
4.75000E+01 1.95818E-06 1.36627E+00 3.00000E-03
5.00000E+01 1.36820E-06 9.54866E-01 3.00000E-03
5.50000E+01 6.68013E-07 4.66557E-01 3.00000E-03
6.00000E+01 3.26188E-07 2.28132E-01 3.00000E-03
6.50000E+01 1.59295E-07 1.11704E-01 3.00000E-03
7.00000E+01 7.78007E-08 5.48434E-02 3.00000E-03
7.50000E+01 3.80026E-08 2.70709E-02 3.00000E-03
8.00000E+01 1.85648E-08 1.35045E-02 3.00000E-03
8.50000E+01 9.07015E-09 6.87677E-03 3.00000E-03
9.00000E+01 4.43186E-09 3.63854E-03 3.00000E-03
9.50000E+01 2.16572E-09 2.05620E-03 3.00000E-03
1.00000E+02 1.00000E-09 1.28292E-03 3.00000E-03
1.05000E+02 9.52381E-10 7.82920E-04 3.00000E-03
1.10000E+02 9.09091E-10 2.82920E-04 3.00000E-03
1.15000E+02 8.69565E-10 1.00000E-05 3.00000E-03
1.20000E+02 8.33333E-10 0.00000E+00 3.00000E-03
