# Atmospheric Model 34012103
# Col. #1          #2           #3            #4
# Alt [km]    rho [g/cm^3] thick [g/cm^2]    n-1
0.00000E+00 1.23888E-03 1.05297E+03 3.00000E-03
1.00000E+00 1.11965E-03 9.35149E+02 3.00000E-03
2.00000E+00 1.01191E-03 8.28661E+02 3.00000E-03
3.00000E+00 9.14548E-04 7.32421E+02 3.00000E-03
4.00000E+00 8.24753E-04 6.45472E+02 3.00000E-03
5.00000E+00 7.40761E-04 5.67272E+02 3.00000E-03
6.00000E+00 6.65330E-04 4.97035E+02 3.00000E-03
7.00000E+00 5.97585E-04 4.33950E+02 3.00000E-03
8.00000E+00 5.36744E-04 3.77288E+02 3.00000E-03
9.00000E+00 4.82101E-04 3.26394E+02 3.00000E-03
1.00000E+01 4.19328E-04 2.81226E+02 3.00000E-03
1.10000E+01 3.60971E-04 2.42284E+02 3.00000E-03
1.20000E+01 3.10740E-04 2.08761E+02 3.00000E-03
1.30000E+01 2.67502E-04 1.79903E+02 3.00000E-03
1.40000E+01 2.30283E-04 1.55061E+02 3.00000E-03
1.50000E+01 1.98245E-04 1.33674E+02 3.00000E-03
1.60000E+01 1.70667E-04 1.15263E+02 3.00000E-03
1.70000E+01 1.46927E-04 9.94130E+01 3.00000E-03
1.80000E+01 1.26490E-04 8.57676E+01 3.00000E-03
1.90000E+01 1.08898E-04 7.40202E+01 3.00000E-03
2.00000E+01 9.37537E-05 6.39065E+01 3.00000E-03
2.10000E+01 8.07165E-05 5.51992E+01 3.00000E-03
2.20000E+01 6.94931E-05 4.77028E+01 3.00000E-03
2.30000E+01 5.98311E-05 4.12486E+01 3.00000E-03
2.40000E+01 5.15131E-05 3.56918E+01 3.00000E-03
2.50000E+01 4.43521E-05 3.09075E+01 3.00000E-03
2.75000E+01 3.07732E-05 2.16411E+01 3.00000E-03
3.00000E+01 2.15657E-05 1.51668E+01 3.00000E-03
3.25000E+01 1.51133E-05 1.06296E+01 3.00000E-03
3.50000E+01 1.05917E-05 7.44994E+00 3.00000E-03
3.75000E+01 7.42294E-06 5.22154E+00 3.00000E-03
4.00000E+01 5.20229E-06 3.65980E+00 3.00000E-03
4.25000E+01 3.64604E-06 2.56526E+00 3.00000E-03
4.50000E+01 2.55537E-06 1.79814E+00 3.00000E-03
4.75000E+01 1.79100E-06 1.26050E+00 3.00000E-03
5.00000E+01 1.25528E-06 8.83671E-01 3.00000E-03
5.50000E+01 6.16677E-07 4.34439E-01 3.00000E-03
6.00000E+01 3.02971E-07 2.13740E-01 3.00000E-03
6.50000E+01 1.48858E-07 1.05309E-01 3.00000E-03
7.00000E+01 7.31425E-08 5.20322E-02 3.00000E-03
7.50000E+01 3.59414E-08 2.58535E-02 3.00000E-03
8.00000E+01 1.76622E-08 1.29893E-02 3.00000E-03
8.50000E+01 8.68004E-09 6.66745E-03 3.00000E-03
9.00000E+01 4.26603E-09 3.56051E-03 3.00000E-03
9.50000E+01 2.09677E-09 2.03348E-03 3.00000E-03
1.00000E+02 1.00000E-09 1.28292E-03 3.00000E-03
1.05000E+02 9.52381E-10 7.82920E-04 3.00000E-03
1.10000E+02 9.09091E-10 2.82920E-04 3.00000E-03
1.15000E+02 8.69565E-10 1.00000E-05 3.00000E-03
1.20000E+02 8.33333E-10 0.00000E+00 3.00000E-03
