# Atmospheric Model 3402202108
# Col. #1          #2           #3            #4
# Alt [km]    rho [g/cm^3] thick [g/cm^2]    n-1
0.00000E+00 1.16796E-03 1.04935E+03 3.00000E-03
1.00000E+00 1.06142E-03 9.37966E+02 3.00000E-03
2.00000E+00 9.64608E-04 8.36741E+02 3.00000E-03
3.00000E+00 8.76635E-04 7.44749E+02 3.00000E-03
4.00000E+00 7.95518E-04 6.61160E+02 3.00000E-03
5.00000E+00 7.17951E-04 5.85553E+02 3.00000E-03
6.00000E+00 6.47953E-04 5.17318E+02 3.00000E-03
7.00000E+00 5.84784E-04 4.55735E+02 3.00000E-03
8.00000E+00 5.27778E-04 4.00155E+02 3.00000E-03
9.00000E+00 4.76333E-04 3.49994E+02 3.00000E-03
1.00000E+01 4.24405E-04 3.04826E+02 3.00000E-03
1.10000E+01 3.69436E-04 2.65197E+02 3.00000E-03
1.20000E+01 3.21589E-04 2.30701E+02 3.00000E-03
1.30000E+01 2.79942E-04 2.00673E+02 3.00000E-03
1.40000E+01 2.43690E-04 1.74533E+02 3.00000E-03
1.50000E+01 2.12135E-04 1.51779E+02 3.00000E-03
1.60000E+01 1.84667E-04 1.31970E+02 3.00000E-03
1.70000E+01 1.60757E-04 1.14727E+02 3.00000E-03
1.80000E+01 1.39945E-04 9.97155E+01 3.00000E-03
1.90000E+01 1.21828E-04 8.66478E+01 3.00000E-03
2.00000E+01 1.06057E-04 7.52718E+01 3.00000E-03
2.10000E+01 9.23287E-05 6.53684E+01 3.00000E-03
2.20000E+01 8.03781E-05 5.67469E+01 3.00000E-03
2.30000E+01 6.99750E-05 4.92412E+01 3.00000E-03
2.40000E+01 6.09189E-05 4.27070E+01 3.00000E-03
2.50000E+01 5.30353E-05 3.70184E+01 3.00000E-03
2.75000E+01 3.73920E-05 2.58154E+01 3.00000E-03
3.00000E+01 2.60301E-05 1.79732E+01 3.00000E-03
3.25000E+01 1.81213E-05 1.25138E+01 3.00000E-03
3.50000E+01 1.26159E-05 8.71312E+00 3.00000E-03
3.75000E+01 8.78346E-06 6.06705E+00 3.00000E-03
4.00000E+01 6.11545E-06 4.22477E+00 3.00000E-03
4.25000E+01 4.25802E-06 2.94207E+00 3.00000E-03
4.50000E+01 2.96486E-06 2.04894E+00 3.00000E-03
4.75000E+01 2.06450E-06 1.42705E+00 3.00000E-03
5.00000E+01 1.43762E-06 9.94001E-01 3.00000E-03
5.50000E+01 6.97188E-07 4.82439E-01 3.00000E-03
6.00000E+01 3.38159E-07 2.34336E-01 3.00000E-03
6.50000E+01 1.64042E-07 1.13990E-01 3.00000E-03
7.00000E+01 7.95896E-08 5.56059E-02 3.00000E-03
7.50000E+01 3.86208E-08 2.72773E-02 3.00000E-03
8.00000E+01 1.87435E-08 1.35301E-02 3.00000E-03
8.50000E+01 9.09793E-09 6.85778E-03 3.00000E-03
9.00000E+01 4.41671E-09 3.61891E-03 3.00000E-03
9.50000E+01 2.14446E-09 2.04645E-03 3.00000E-03
1.00000E+02 1.00000E-09 1.28292E-03 3.00000E-03
1.05000E+02 9.52381E-10 7.82920E-04 3.00000E-03
1.10000E+02 9.09091E-10 2.82920E-04 3.00000E-03
1.15000E+02 8.69565E-10 1.00000E-05 3.00000E-03
1.20000E+02 8.33333E-10 0.00000E+00 3.00000E-03
