# Atmospheric Model 34022103
# Col. #1          #2           #3            #4
# Alt [km]    rho [g/cm^3] thick [g/cm^2]    n-1
0.00000E+00 1.23559E-03 1.05221E+03 3.00000E-03
1.00000E+00 1.11620E-03 9.34725E+02 3.00000E-03
2.00000E+00 1.00837E-03 8.28588E+02 3.00000E-03
3.00000E+00 9.10969E-04 7.32703E+02 3.00000E-03
4.00000E+00 8.21573E-04 6.46105E+02 3.00000E-03
5.00000E+00 7.38545E-04 5.68173E+02 3.00000E-03
6.00000E+00 6.63915E-04 4.98116E+02 3.00000E-03
7.00000E+00 5.96830E-04 4.35139E+02 3.00000E-03
8.00000E+00 5.36529E-04 3.78524E+02 3.00000E-03
9.00000E+00 4.82324E-04 3.27630E+02 3.00000E-03
1.00000E+01 4.20054E-04 2.82402E+02 3.00000E-03
1.10000E+01 3.61745E-04 2.43385E+02 3.00000E-03
1.20000E+01 3.11534E-04 2.09783E+02 3.00000E-03
1.30000E+01 2.68296E-04 1.80846E+02 3.00000E-03
1.40000E+01 2.31063E-04 1.55924E+02 3.00000E-03
1.50000E+01 1.98999E-04 1.34461E+02 3.00000E-03
1.60000E+01 1.71386E-04 1.15976E+02 3.00000E-03
1.70000E+01 1.47607E-04 1.00056E+02 3.00000E-03
1.80000E+01 1.27129E-04 8.63445E+01 3.00000E-03
1.90000E+01 1.09494E-04 7.45353E+01 3.00000E-03
2.00000E+01 9.43059E-05 6.43642E+01 3.00000E-03
2.10000E+01 8.12258E-05 5.56039E+01 3.00000E-03
2.20000E+01 6.99608E-05 4.80586E+01 3.00000E-03
2.30000E+01 6.02590E-05 4.15597E+01 3.00000E-03
2.40000E+01 5.19033E-05 3.59620E+01 3.00000E-03
2.50000E+01 4.47068E-05 3.11404E+01 3.00000E-03
2.75000E+01 3.10252E-05 2.17974E+01 3.00000E-03
3.00000E+01 2.17347E-05 1.52712E+01 3.00000E-03
3.25000E+01 1.52265E-05 1.06992E+01 3.00000E-03
3.50000E+01 1.06673E-05 7.49622E+00 3.00000E-03
3.75000E+01 7.47345E-06 5.25225E+00 3.00000E-03
4.00000E+01 5.23594E-06 3.68014E+00 3.00000E-03
4.25000E+01 3.66841E-06 2.57869E+00 3.00000E-03
4.50000E+01 2.57021E-06 1.80699E+00 3.00000E-03
4.75000E+01 1.80081E-06 1.26630E+00 3.00000E-03
5.00000E+01 1.26176E-06 8.87463E-01 3.00000E-03
5.50000E+01 6.19471E-07 4.36037E-01 3.00000E-03
6.00000E+01 3.04157E-07 2.14399E-01 3.00000E-03
6.50000E+01 1.49351E-07 1.05572E-01 3.00000E-03
7.00000E+01 7.33419E-08 5.21327E-02 3.00000E-03
7.50000E+01 3.60187E-08 2.58894E-02 3.00000E-03
8.00000E+01 1.76904E-08 1.30006E-02 3.00000E-03
8.50000E+01 8.68913E-09 6.67023E-03 3.00000E-03
9.00000E+01 4.26822E-09 3.56077E-03 3.00000E-03
9.50000E+01 2.09676E-09 2.03331E-03 3.00000E-03
1.00000E+02 1.00000E-09 1.28292E-03 3.00000E-03
1.05000E+02 9.52381E-10 7.82920E-04 3.00000E-03
1.10000E+02 9.09091E-10 2.82920E-04 3.00000E-03
1.15000E+02 8.69565E-10 1.00000E-05 3.00000E-03
1.20000E+02 8.33333E-10 0.00000E+00 3.00000E-03
