# Atmospheric Model 34022102
# Col. #1          #2           #3            #4
# Alt [km]    rho [g/cm^3] thick [g/cm^2]    n-1
0.00000E+00 1.23601E-03 1.05116E+03 3.00000E-03
1.00000E+00 1.11505E-03 9.33710E+02 3.00000E-03
2.00000E+00 1.00594E-03 8.27754E+02 3.00000E-03
3.00000E+00 9.07519E-04 7.32165E+02 3.00000E-03
4.00000E+00 8.17439E-04 6.45955E+02 3.00000E-03
5.00000E+00 7.34514E-04 5.68431E+02 3.00000E-03
6.00000E+00 6.60008E-04 4.98772E+02 3.00000E-03
7.00000E+00 5.93064E-04 4.36178E+02 3.00000E-03
8.00000E+00 5.32914E-04 3.79933E+02 3.00000E-03
9.00000E+00 4.78848E-04 3.29392E+02 3.00000E-03
1.00000E+01 4.17682E-04 2.84473E+02 3.00000E-03
1.10000E+01 3.60455E-04 2.45636E+02 3.00000E-03
1.20000E+01 3.11074E-04 2.12121E+02 3.00000E-03
1.30000E+01 2.68464E-04 1.83196E+02 3.00000E-03
1.40000E+01 2.31694E-04 1.58233E+02 3.00000E-03
1.50000E+01 1.99964E-04 1.36689E+02 3.00000E-03
1.60000E+01 1.72583E-04 1.18096E+02 3.00000E-03
1.70000E+01 1.48954E-04 1.02048E+02 3.00000E-03
1.80000E+01 1.28563E-04 8.81969E+01 3.00000E-03
1.90000E+01 1.10965E-04 7.62422E+01 3.00000E-03
2.00000E+01 9.57776E-05 6.59237E+01 3.00000E-03
2.10000E+01 8.26705E-05 5.70174E+01 3.00000E-03
2.20000E+01 7.13584E-05 4.93298E+01 3.00000E-03
2.30000E+01 6.15953E-05 4.26941E+01 3.00000E-03
2.40000E+01 5.31690E-05 3.69662E+01 3.00000E-03
2.50000E+01 4.58963E-05 3.20219E+01 3.00000E-03
2.75000E+01 3.19463E-05 2.24100E+01 3.00000E-03
3.00000E+01 2.23677E-05 1.56917E+01 3.00000E-03
3.25000E+01 1.56614E-05 1.09878E+01 3.00000E-03
3.50000E+01 1.09660E-05 7.69418E+00 3.00000E-03
3.75000E+01 7.67846E-06 5.38799E+00 3.00000E-03
4.00000E+01 5.37662E-06 3.77316E+00 3.00000E-03
4.25000E+01 3.76490E-06 2.64241E+00 3.00000E-03
4.50000E+01 2.63637E-06 1.85061E+00 3.00000E-03
4.75000E+01 1.84615E-06 1.29615E+00 3.00000E-03
5.00000E+01 1.29282E-06 9.07878E-01 3.00000E-03
5.50000E+01 6.34018E-07 4.45567E-01 3.00000E-03
6.00000E+01 3.10957E-07 2.18834E-01 3.00000E-03
6.50000E+01 1.52522E-07 1.07628E-01 3.00000E-03
7.00000E+01 7.48168E-08 5.30803E-02 3.00000E-03
7.50000E+01 3.67027E-08 2.63221E-02 3.00000E-03
8.00000E+01 1.80066E-08 1.31950E-02 3.00000E-03
8.50000E+01 8.83477E-09 6.75454E-03 3.00000E-03
9.00000E+01 4.33503E-09 3.59448E-03 3.00000E-03
9.50000E+01 2.12726E-09 2.04386E-03 3.00000E-03
1.00000E+02 1.00000E-09 1.28292E-03 3.00000E-03
1.05000E+02 9.52381E-10 7.82920E-04 3.00000E-03
1.10000E+02 9.09091E-10 2.82920E-04 3.00000E-03
1.15000E+02 8.69565E-10 1.00000E-05 3.00000E-03
1.20000E+02 8.33333E-10 0.00000E+00 3.00000E-03
