# Atmospheric Model 3402202107
# Col. #1          #2           #3            #4
# Alt [km]    rho [g/cm^3] thick [g/cm^2]    n-1
0.00000E+00 1.17308E-03 1.05074E+03 3.00000E-03
1.00000E+00 1.06466E-03 9.38943E+02 3.00000E-03
2.00000E+00 9.66265E-04 8.37477E+02 3.00000E-03
3.00000E+00 8.76979E-04 7.45387E+02 3.00000E-03
4.00000E+00 7.94939E-04 6.61817E+02 3.00000E-03
5.00000E+00 7.17132E-04 5.86280E+02 3.00000E-03
6.00000E+00 6.46946E-04 5.18137E+02 3.00000E-03
7.00000E+00 5.83633E-04 4.56662E+02 3.00000E-03
8.00000E+00 5.26520E-04 4.01203E+02 3.00000E-03
9.00000E+00 4.75000E-04 3.51172E+02 3.00000E-03
1.00000E+01 4.23457E-04 3.06126E+02 3.00000E-03
1.10000E+01 3.68984E-04 2.66566E+02 3.00000E-03
1.20000E+01 3.21520E-04 2.32096E+02 3.00000E-03
1.30000E+01 2.80164E-04 2.02059E+02 3.00000E-03
1.40000E+01 2.44128E-04 1.75886E+02 3.00000E-03
1.50000E+01 2.12730E-04 1.53079E+02 3.00000E-03
1.60000E+01 1.85371E-04 1.33205E+02 3.00000E-03
1.70000E+01 1.61531E-04 1.15888E+02 3.00000E-03
1.80000E+01 1.40759E-04 1.00797E+02 3.00000E-03
1.90000E+01 1.22658E-04 8.76468E+01 3.00000E-03
2.00000E+01 1.06886E-04 7.61876E+01 3.00000E-03
2.10000E+01 9.31427E-05 6.62020E+01 3.00000E-03
2.20000E+01 8.11670E-05 5.75002E+01 3.00000E-03
2.30000E+01 7.07315E-05 4.99173E+01 3.00000E-03
2.40000E+01 6.16381E-05 4.33092E+01 3.00000E-03
2.50000E+01 5.37141E-05 3.75507E+01 3.00000E-03
2.75000E+01 3.79526E-05 2.61913E+01 3.00000E-03
3.00000E+01 2.64154E-05 1.82322E+01 3.00000E-03
3.25000E+01 1.83863E-05 1.26925E+01 3.00000E-03
3.50000E+01 1.27984E-05 8.83650E+00 3.00000E-03
3.75000E+01 8.90926E-06 6.15233E+00 3.00000E-03
4.00000E+01 6.20225E-06 4.28378E+00 3.00000E-03
4.25000E+01 4.31797E-06 2.98295E+00 3.00000E-03
4.50000E+01 3.00631E-06 2.07729E+00 3.00000E-03
4.75000E+01 2.09319E-06 1.44673E+00 3.00000E-03
5.00000E+01 1.45750E-06 1.00767E+00 3.00000E-03
5.50000E+01 7.06766E-07 4.89061E-01 3.00000E-03
6.00000E+01 3.42794E-07 2.37554E-01 3.00000E-03
6.50000E+01 1.66295E-07 1.15558E-01 3.00000E-03
7.00000E+01 8.06896E-08 5.63698E-02 3.00000E-03
7.50000E+01 3.91602E-08 2.76480E-02 3.00000E-03
8.00000E+01 1.90090E-08 1.37076E-02 3.00000E-03
8.50000E+01 9.22918E-09 6.94006E-03 3.00000E-03
9.00000E+01 4.48182E-09 3.65402E-03 3.00000E-03
9.50000E+01 2.17687E-09 2.05813E-03 3.00000E-03
1.00000E+02 1.00000E-09 1.28292E-03 3.00000E-03
1.05000E+02 9.52381E-10 7.82920E-04 3.00000E-03
1.10000E+02 9.09091E-10 2.82920E-04 3.00000E-03
1.15000E+02 8.69565E-10 1.00000E-05 3.00000E-03
1.20000E+02 8.33333E-10 0.00000E+00 3.00000E-03
