# Atmospheric Model 34022106
# Col. #1          #2           #3            #4
# Alt [km]    rho [g/cm^3] thick [g/cm^2]    n-1
0.00000E+00 1.18465E-03 1.04740E+03 3.00000E-03
1.00000E+00 1.07710E-03 9.34401E+02 3.00000E-03
2.00000E+00 9.79323E-04 8.31657E+02 3.00000E-03
3.00000E+00 8.90436E-04 7.38240E+02 3.00000E-03
4.00000E+00 8.07521E-04 6.53329E+02 3.00000E-03
5.00000E+00 7.26814E-04 5.76683E+02 3.00000E-03
6.00000E+00 6.54177E-04 5.07697E+02 3.00000E-03
7.00000E+00 5.88801E-04 4.45606E+02 3.00000E-03
8.00000E+00 5.29961E-04 3.89719E+02 3.00000E-03
9.00000E+00 4.77003E-04 3.39418E+02 3.00000E-03
1.00000E+01 4.21113E-04 2.94363E+02 3.00000E-03
1.10000E+01 3.65002E-04 2.55124E+02 3.00000E-03
1.20000E+01 3.16370E-04 2.21113E+02 3.00000E-03
1.30000E+01 2.74219E-04 1.91634E+02 3.00000E-03
1.40000E+01 2.37686E-04 1.66082E+02 3.00000E-03
1.50000E+01 2.06021E-04 1.43935E+02 3.00000E-03
1.60000E+01 1.78576E-04 1.24737E+02 3.00000E-03
1.70000E+01 1.54788E-04 1.08097E+02 3.00000E-03
1.80000E+01 1.34170E-04 9.36741E+01 3.00000E-03
1.90000E+01 1.16299E-04 8.11719E+01 3.00000E-03
2.00000E+01 1.00809E-04 7.03349E+01 3.00000E-03
2.10000E+01 8.73831E-05 6.09413E+01 3.00000E-03
2.20000E+01 7.57456E-05 5.27987E+01 3.00000E-03
2.30000E+01 6.56583E-05 4.57405E+01 3.00000E-03
2.40000E+01 5.69148E-05 3.96223E+01 3.00000E-03
2.50000E+01 4.93360E-05 3.43188E+01 3.00000E-03
2.75000E+01 3.44940E-05 2.39479E+01 3.00000E-03
3.00000E+01 2.40618E-05 1.67066E+01 3.00000E-03
3.25000E+01 1.67851E-05 1.16552E+01 3.00000E-03
3.50000E+01 1.17093E-05 8.13145E+00 3.00000E-03
3.75000E+01 8.16861E-06 5.67322E+00 3.00000E-03
4.00000E+01 5.69871E-06 3.95829E+00 3.00000E-03
4.25000E+01 3.97573E-06 2.76189E+00 3.00000E-03
4.50000E+01 2.77375E-06 1.92720E+00 3.00000E-03
4.75000E+01 1.93522E-06 1.34486E+00 3.00000E-03
5.00000E+01 1.35021E-06 9.38555E-01 3.00000E-03
5.50000E+01 6.57327E-07 4.57279E-01 3.00000E-03
6.00000E+01 3.20040E-07 2.22968E-01 3.00000E-03
6.50000E+01 1.55837E-07 1.08881E-01 3.00000E-03
7.00000E+01 7.58894E-08 5.33263E-02 3.00000E-03
7.50000E+01 3.69602E-08 2.62711E-02 3.00000E-03
8.00000E+01 1.80025E-08 1.30939E-02 3.00000E-03
8.50000E+01 8.76946E-09 6.67532E-03 3.00000E-03
9.00000E+01 4.27225E-09 3.54853E-03 3.00000E-03
9.50000E+01 2.08154E-09 2.02517E-03 3.00000E-03
1.00000E+02 1.00000E-09 1.28292E-03 3.00000E-03
1.05000E+02 9.52381E-10 7.82920E-04 3.00000E-03
1.10000E+02 9.09091E-10 2.82920E-04 3.00000E-03
1.15000E+02 8.69565E-10 1.00000E-05 3.00000E-03
1.20000E+02 8.33333E-10 0.00000E+00 3.00000E-03
