# Atmospheric Model 3402202104
# Col. #1          #2           #3            #4
# Alt [km]    rho [g/cm^3] thick [g/cm^2]    n-1
0.00000E+00 1.21727E-03 1.04522E+03 3.00000E-03
1.00000E+00 1.10241E-03 9.29335E+02 3.00000E-03
2.00000E+00 9.98400E-04 8.24380E+02 3.00000E-03
3.00000E+00 9.04203E-04 7.29328E+02 3.00000E-03
4.00000E+00 8.16466E-04 6.43288E+02 3.00000E-03
5.00000E+00 7.33295E-04 5.65874E+02 3.00000E-03
6.00000E+00 6.58598E-04 4.96347E+02 3.00000E-03
7.00000E+00 5.91512E-04 4.33901E+02 3.00000E-03
8.00000E+00 5.31260E-04 3.77816E+02 3.00000E-03
9.00000E+00 4.77148E-04 3.27444E+02 3.00000E-03
1.00000E+01 4.15970E-04 2.82689E+02 3.00000E-03
1.10000E+01 3.58885E-04 2.44016E+02 3.00000E-03
1.20000E+01 3.09637E-04 2.10650E+02 3.00000E-03
1.30000E+01 2.67149E-04 1.81863E+02 3.00000E-03
1.40000E+01 2.30493E-04 1.57026E+02 3.00000E-03
1.50000E+01 1.98869E-04 1.35597E+02 3.00000E-03
1.60000E+01 1.71585E-04 1.17108E+02 3.00000E-03
1.70000E+01 1.48045E-04 1.01156E+02 3.00000E-03
1.80000E+01 1.27736E-04 8.73915E+01 3.00000E-03
1.90000E+01 1.10214E-04 7.55155E+01 3.00000E-03
2.00000E+01 9.50966E-05 6.52685E+01 3.00000E-03
2.10000E+01 8.20533E-05 5.64271E+01 3.00000E-03
2.20000E+01 7.07996E-05 4.87983E+01 3.00000E-03
2.30000E+01 6.10899E-05 4.22157E+01 3.00000E-03
2.40000E+01 5.27123E-05 3.65359E+01 3.00000E-03
2.50000E+01 4.54840E-05 3.16350E+01 3.00000E-03
2.75000E+01 3.15963E-05 2.21178E+01 3.00000E-03
3.00000E+01 2.21058E-05 1.54755E+01 3.00000E-03
3.25000E+01 1.54663E-05 1.08283E+01 3.00000E-03
3.50000E+01 1.08213E-05 7.57682E+00 3.00000E-03
3.75000E+01 7.57144E-06 5.30186E+00 3.00000E-03
4.00000E+01 5.29771E-06 3.71010E+00 3.00000E-03
4.25000E+01 3.70688E-06 2.59634E+00 3.00000E-03
4.50000E+01 2.59381E-06 1.81701E+00 3.00000E-03
4.75000E+01 1.81500E-06 1.27169E+00 3.00000E-03
5.00000E+01 1.27006E-06 8.90106E-01 3.00000E-03
5.50000E+01 6.21944E-07 4.36227E-01 3.00000E-03
6.00000E+01 3.04590E-07 2.13955E-01 3.00000E-03
6.50000E+01 1.49182E-07 1.05096E-01 3.00000E-03
7.00000E+01 7.30727E-08 5.17774E-02 3.00000E-03
7.50000E+01 3.57957E-08 2.56597E-02 3.00000E-03
8.00000E+01 1.75365E-08 1.28650E-02 3.00000E-03
8.50000E+01 8.59192E-09 6.59663E-03 3.00000E-03
9.00000E+01 4.20992E-09 3.52535E-03 3.00000E-03
9.50000E+01 2.06297E-09 2.02041E-03 3.00000E-03
1.00000E+02 1.00000E-09 1.28292E-03 3.00000E-03
1.05000E+02 9.52381E-10 7.82920E-04 3.00000E-03
1.10000E+02 9.09091E-10 2.82920E-04 3.00000E-03
1.15000E+02 8.69565E-10 1.00000E-05 3.00000E-03
1.20000E+02 8.33333E-10 0.00000E+00 3.00000E-03
