# Atmospheric Model 5805202102
# Col. #1          #2           #3            #4
# Alt [km]    rho [g/cm^3] thick [g/cm^2]    n-1
0.00000E+00 1.16311E-03 1.05972E+03 3.00000E-03
1.00000E+00 1.05884E-03 9.48701E+02 3.00000E-03
2.00000E+00 9.63915E-04 8.47637E+02 3.00000E-03
3.00000E+00 8.77506E-04 7.55634E+02 3.00000E-03
4.00000E+00 7.96475E-04 6.71904E+02 3.00000E-03
5.00000E+00 7.15298E-04 5.96388E+02 3.00000E-03
6.00000E+00 6.42396E-04 5.28569E+02 3.00000E-03
7.00000E+00 5.76925E-04 4.67661E+02 3.00000E-03
8.00000E+00 5.18128E-04 4.12961E+02 3.00000E-03
9.00000E+00 4.65324E-04 3.63836E+02 3.00000E-03
1.00000E+01 4.15711E-04 3.19745E+02 3.00000E-03
1.10000E+01 3.65740E-04 2.80726E+02 3.00000E-03
1.20000E+01 3.21777E-04 2.46397E+02 3.00000E-03
1.30000E+01 2.83098E-04 2.16195E+02 3.00000E-03
1.40000E+01 2.49068E-04 1.89623E+02 3.00000E-03
1.50000E+01 2.19130E-04 1.66245E+02 3.00000E-03
1.60000E+01 1.92790E-04 1.45677E+02 3.00000E-03
1.70000E+01 1.69616E-04 1.27581E+02 3.00000E-03
1.80000E+01 1.49229E-04 1.11661E+02 3.00000E-03
1.90000E+01 1.31291E-04 9.76540E+01 3.00000E-03
2.00000E+01 1.15510E-04 8.53307E+01 3.00000E-03
2.10000E+01 1.01626E-04 7.44887E+01 3.00000E-03
2.20000E+01 8.94110E-05 6.49499E+01 3.00000E-03
2.30000E+01 7.86641E-05 5.65576E+01 3.00000E-03
2.40000E+01 6.92090E-05 4.91740E+01 3.00000E-03
2.50000E+01 6.08905E-05 4.26779E+01 3.00000E-03
2.75000E+01 4.33691E-05 2.96983E+01 3.00000E-03
3.00000E+01 3.00956E-05 2.06161E+01 3.00000E-03
3.25000E+01 2.08873E-05 1.43132E+01 3.00000E-03
3.50000E+01 1.44982E-05 9.93857E+00 3.00000E-03
3.75000E+01 1.00648E-05 6.90186E+00 3.00000E-03
4.00000E+01 6.98788E-06 4.79364E+00 3.00000E-03
4.25000E+01 4.85223E-06 3.32983E+00 3.00000E-03
4.50000E+01 3.36969E-06 2.31334E+00 3.00000E-03
4.75000E+01 2.34040E-06 1.60739E+00 3.00000E-03
5.00000E+01 1.62571E-06 1.11704E+00 3.00000E-03
5.50000E+01 7.84695E-07 5.39763E-01 3.00000E-03
6.00000E+01 3.78930E-07 2.61067E-01 3.00000E-03
6.50000E+01 1.83068E-07 1.26458E-01 3.00000E-03
7.00000E+01 8.84823E-08 6.14131E-02 3.00000E-03
7.50000E+01 4.27846E-08 2.99690E-02 3.00000E-03
8.00000E+01 2.06967E-08 1.47617E-02 3.00000E-03
8.50000E+01 1.00160E-08 7.40403E-03 3.00000E-03
9.00000E+01 4.84906E-09 3.84271E-03 3.00000E-03
9.50000E+01 2.34851E-09 2.11825E-03 3.00000E-03
1.00000E+02 1.00000E-09 1.28292E-03 3.00000E-03
1.05000E+02 9.52381E-10 7.82920E-04 3.00000E-03
1.10000E+02 9.09091E-10 2.82920E-04 3.00000E-03
1.15000E+02 8.69565E-10 1.00000E-05 3.00000E-03
1.20000E+02 8.33333E-10 0.00000E+00 3.00000E-03
