# Atmospheric Model 58052108
# Col. #1          #2           #3            #4
# Alt [km]    rho [g/cm^3] thick [g/cm^2]    n-1
0.00000E+00 1.17155E-03 1.05978E+03 3.00000E-03
1.00000E+00 1.06389E-03 9.48096E+02 3.00000E-03
2.00000E+00 9.66129E-04 8.46673E+02 3.00000E-03
3.00000E+00 8.77360E-04 7.54570E+02 3.00000E-03
4.00000E+00 7.95205E-04 6.70945E+02 3.00000E-03
5.00000E+00 7.15252E-04 5.95493E+02 3.00000E-03
6.00000E+00 6.43339E-04 5.27627E+02 3.00000E-03
7.00000E+00 5.78657E-04 4.66584E+02 3.00000E-03
8.00000E+00 5.20479E-04 4.11679E+02 3.00000E-03
9.00000E+00 4.68151E-04 3.62293E+02 3.00000E-03
1.00000E+01 4.18542E-04 3.17906E+02 3.00000E-03
1.10000E+01 3.67548E-04 2.78656E+02 3.00000E-03
1.20000E+01 3.22767E-04 2.44189E+02 3.00000E-03
1.30000E+01 2.83442E-04 2.13921E+02 3.00000E-03
1.40000E+01 2.48909E-04 1.87341E+02 3.00000E-03
1.50000E+01 2.18583E-04 1.63999E+02 3.00000E-03
1.60000E+01 1.91951E-04 1.43501E+02 3.00000E-03
1.70000E+01 1.68565E-04 1.25501E+02 3.00000E-03
1.80000E+01 1.48028E-04 1.09693E+02 3.00000E-03
1.90000E+01 1.29993E-04 9.58119E+01 3.00000E-03
2.00000E+01 1.14155E-04 8.36216E+01 3.00000E-03
2.10000E+01 1.00247E-04 7.29165E+01 3.00000E-03
2.20000E+01 8.80337E-05 6.35157E+01 3.00000E-03
2.30000E+01 7.73083E-05 5.52602E+01 3.00000E-03
2.40000E+01 6.78895E-05 4.80105E+01 3.00000E-03
2.50000E+01 5.96184E-05 4.16441E+01 3.00000E-03
2.75000E+01 4.24775E-05 2.89442E+01 3.00000E-03
3.00000E+01 2.94237E-05 2.00563E+01 3.00000E-03
3.25000E+01 2.03840E-05 1.38994E+01 3.00000E-03
3.50000E+01 1.41233E-05 9.63377E+00 3.00000E-03
3.75000E+01 9.78675E-06 6.67811E+00 3.00000E-03
4.00000E+01 6.78256E-06 4.62987E+00 3.00000E-03
4.25000E+01 4.70113E-06 3.21028E+00 3.00000E-03
4.50000E+01 3.25885E-06 2.22628E+00 3.00000E-03
4.75000E+01 2.25932E-06 1.54412E+00 3.00000E-03
5.00000E+01 1.56655E-06 1.07116E+00 3.00000E-03
5.50000E+01 7.53414E-07 5.15777E-01 3.00000E-03
6.00000E+01 3.62515E-07 2.48615E-01 3.00000E-03
6.50000E+01 1.74509E-07 1.20041E-01 3.00000E-03
7.00000E+01 8.40443E-08 5.81348E-02 3.00000E-03
7.50000E+01 4.04941E-08 2.83147E-02 3.00000E-03
8.00000E+01 1.95194E-08 1.39440E-02 3.00000E-03
8.50000E+01 9.41298E-09 7.01559E-03 3.00000E-03
9.00000E+01 4.54121E-09 3.67382E-03 3.00000E-03
9.50000E+01 2.19178E-09 2.06132E-03 3.00000E-03
1.00000E+02 1.00000E-09 1.28292E-03 3.00000E-03
1.05000E+02 9.52381E-10 7.82920E-04 3.00000E-03
1.10000E+02 9.09091E-10 2.82920E-04 3.00000E-03
1.15000E+02 8.69565E-10 1.00000E-05 3.00000E-03
1.20000E+02 8.33333E-10 0.00000E+00 3.00000E-03
