# Atmospheric Model 58052106
# Col. #1          #2           #3            #4
# Alt [km]    rho [g/cm^3] thick [g/cm^2]    n-1
0.00000E+00 1.17220E-03 1.06039E+03 3.00000E-03
1.00000E+00 1.06445E-03 9.48640E+02 3.00000E-03
2.00000E+00 9.66607E-04 8.47166E+02 3.00000E-03
3.00000E+00 8.77765E-04 7.55019E+02 3.00000E-03
4.00000E+00 7.95550E-04 6.71356E+02 3.00000E-03
5.00000E+00 7.15525E-04 5.95873E+02 3.00000E-03
6.00000E+00 6.43550E-04 5.27983E+02 3.00000E-03
7.00000E+00 5.78816E-04 4.66922E+02 3.00000E-03
8.00000E+00 5.20595E-04 4.12003E+02 3.00000E-03
9.00000E+00 4.68230E-04 3.62608E+02 3.00000E-03
1.00000E+01 4.18591E-04 3.18214E+02 3.00000E-03
1.10000E+01 3.67625E-04 2.78958E+02 3.00000E-03
1.20000E+01 3.22865E-04 2.44482E+02 3.00000E-03
1.30000E+01 2.83555E-04 2.14204E+02 3.00000E-03
1.40000E+01 2.49031E-04 1.87612E+02 3.00000E-03
1.50000E+01 2.18710E-04 1.64258E+02 3.00000E-03
1.60000E+01 1.92082E-04 1.43747E+02 3.00000E-03
1.70000E+01 1.68695E-04 1.25733E+02 3.00000E-03
1.80000E+01 1.48156E-04 1.09913E+02 3.00000E-03
1.90000E+01 1.30118E-04 9.60187E+01 3.00000E-03
2.00000E+01 1.14276E-04 8.38161E+01 3.00000E-03
2.10000E+01 1.00363E-04 7.30992E+01 3.00000E-03
2.20000E+01 8.81434E-05 6.36872E+01 3.00000E-03
2.30000E+01 7.74119E-05 5.54210E+01 3.00000E-03
2.40000E+01 6.79870E-05 4.81612E+01 3.00000E-03
2.50000E+01 5.97096E-05 4.17854E+01 3.00000E-03
2.75000E+01 4.25433E-05 2.90660E+01 3.00000E-03
3.00000E+01 2.94985E-05 2.01602E+01 3.00000E-03
3.25000E+01 2.04560E-05 1.39848E+01 3.00000E-03
3.50000E+01 1.41870E-05 9.70211E+00 3.00000E-03
3.75000E+01 9.84033E-06 6.73178E+00 3.00000E-03
4.00000E+01 6.82620E-06 4.67140E+00 3.00000E-03
4.25000E+01 4.73584E-06 3.24204E+00 3.00000E-03
4.50000E+01 3.28598E-06 2.25034E+00 3.00000E-03
4.75000E+01 2.28024E-06 1.56221E+00 3.00000E-03
5.00000E+01 1.58250E-06 1.08467E+00 3.00000E-03
5.50000E+01 7.62454E-07 5.23179E-01 3.00000E-03
6.00000E+01 3.67512E-07 2.52601E-01 3.00000E-03
6.50000E+01 1.77221E-07 1.22154E-01 3.00000E-03
7.00000E+01 8.54950E-08 5.92391E-02 3.00000E-03
7.50000E+01 4.12615E-08 2.88819E-02 3.00000E-03
8.00000E+01 1.99217E-08 1.42284E-02 3.00000E-03
8.50000E+01 9.62235E-09 7.15217E-03 3.00000E-03
9.00000E+01 4.64950E-09 3.73371E-03 3.00000E-03
9.50000E+01 2.24749E-09 2.08164E-03 3.00000E-03
1.00000E+02 1.00000E-09 1.28292E-03 3.00000E-03
1.05000E+02 9.52381E-10 7.82920E-04 3.00000E-03
1.10000E+02 9.09091E-10 2.82920E-04 3.00000E-03
1.15000E+02 8.69565E-10 1.00000E-05 3.00000E-03
1.20000E+02 8.33333E-10 0.00000E+00 3.00000E-03
