# Atmospheric Model 52022106
# Col. #1          #2           #3            #4
# Alt [km]    rho [g/cm^3] thick [g/cm^2]    n-1
0.00000E+00 1.14807E-03 1.05428E+03 3.00000E-03
1.00000E+00 1.04699E-03 9.44608E+02 3.00000E-03
2.00000E+00 9.54822E-04 8.44588E+02 3.00000E-03
3.00000E+00 8.70777E-04 7.53373E+02 3.00000E-03
4.00000E+00 7.91881E-04 6.70210E+02 3.00000E-03
5.00000E+00 7.12602E-04 5.95056E+02 3.00000E-03
6.00000E+00 6.41260E-04 5.27425E+02 3.00000E-03
7.00000E+00 5.77062E-04 4.66565E+02 3.00000E-03
8.00000E+00 5.19291E-04 4.11799E+02 3.00000E-03
9.00000E+00 4.67304E-04 3.62515E+02 3.00000E-03
1.00000E+01 4.18005E-04 3.18196E+02 3.00000E-03
1.10000E+01 3.67202E-04 2.78991E+02 3.00000E-03
1.20000E+01 3.22573E-04 2.44550E+02 3.00000E-03
1.30000E+01 2.83369E-04 2.14295E+02 3.00000E-03
1.40000E+01 2.48930E-04 1.87718E+02 3.00000E-03
1.50000E+01 2.18676E-04 1.64370E+02 3.00000E-03
1.60000E+01 1.92100E-04 1.43860E+02 3.00000E-03
1.70000E+01 1.68754E-04 1.25842E+02 3.00000E-03
1.80000E+01 1.48245E-04 1.10015E+02 3.00000E-03
1.90000E+01 1.30228E-04 9.61103E+01 3.00000E-03
2.00000E+01 1.14402E-04 8.38959E+01 3.00000E-03
2.10000E+01 1.00499E-04 7.31659E+01 3.00000E-03
2.20000E+01 8.82851E-05 6.37399E+01 3.00000E-03
2.30000E+01 7.75560E-05 5.54594E+01 3.00000E-03
2.40000E+01 6.81309E-05 4.81853E+01 3.00000E-03
2.50000E+01 5.98512E-05 4.17951E+01 3.00000E-03
2.75000E+01 4.26916E-05 2.90386E+01 3.00000E-03
3.00000E+01 2.95523E-05 2.01086E+01 3.00000E-03
3.25000E+01 2.04596E-05 1.39267E+01 3.00000E-03
3.50000E+01 1.41665E-05 9.64657E+00 3.00000E-03
3.75000E+01 9.81032E-06 6.68277E+00 3.00000E-03
4.00000E+01 6.79455E-06 4.63021E+00 3.00000E-03
4.25000E+01 4.70646E-06 3.20854E+00 3.00000E-03
4.50000E+01 3.26049E-06 2.22371E+00 3.00000E-03
4.75000E+01 2.25906E-06 1.54141E+00 3.00000E-03
5.00000E+01 1.56541E-06 1.06865E+00 3.00000E-03
5.50000E+01 7.51950E-07 5.13964E-01 3.00000E-03
6.00000E+01 3.61381E-07 2.47461E-01 3.00000E-03
6.50000E+01 1.73761E-07 1.19355E-01 3.00000E-03
7.00000E+01 8.35882E-08 5.77455E-02 3.00000E-03
7.50000E+01 4.02292E-08 2.81018E-02 3.00000E-03
8.00000E+01 1.93704E-08 1.38321E-02 3.00000E-03
8.50000E+01 9.33107E-09 6.95978E-03 3.00000E-03
9.00000E+01 4.49694E-09 3.64864E-03 3.00000E-03
9.50000E+01 2.16816E-09 2.05259E-03 3.00000E-03
1.00000E+02 1.00000E-09 1.28292E-03 3.00000E-03
1.05000E+02 9.52381E-10 7.82920E-04 3.00000E-03
1.10000E+02 9.09091E-10 2.82920E-04 3.00000E-03
1.15000E+02 8.69565E-10 1.00000E-05 3.00000E-03
1.20000E+02 8.33333E-10 0.00000E+00 3.00000E-03
