# Atmospheric Model 5202202101
# Col. #1          #2           #3            #4
# Alt [km]    rho [g/cm^3] thick [g/cm^2]    n-1
0.00000E+00 1.16136E-03 1.05570E+03 3.00000E-03
1.00000E+00 1.05694E-03 9.44871E+02 3.00000E-03
2.00000E+00 9.61916E-04 8.44004E+02 3.00000E-03
3.00000E+00 8.75451E-04 7.52203E+02 3.00000E-03
4.00000E+00 7.94958E-04 6.68674E+02 3.00000E-03
5.00000E+00 7.15850E-04 5.93202E+02 3.00000E-03
6.00000E+00 6.44615E-04 5.25241E+02 3.00000E-03
7.00000E+00 5.80470E-04 4.64043E+02 3.00000E-03
8.00000E+00 5.22709E-04 4.08934E+02 3.00000E-03
9.00000E+00 4.70696E-04 3.59310E+02 3.00000E-03
1.00000E+01 4.20359E-04 3.14677E+02 3.00000E-03
1.10000E+01 3.68303E-04 2.75301E+02 3.00000E-03
1.20000E+01 3.22695E-04 2.40802E+02 3.00000E-03
1.30000E+01 2.82737E-04 2.10574E+02 3.00000E-03
1.40000E+01 2.47727E-04 1.84090E+02 3.00000E-03
1.50000E+01 2.17054E-04 1.60884E+02 3.00000E-03
1.60000E+01 1.90179E-04 1.40552E+02 3.00000E-03
1.70000E+01 1.66633E-04 1.22738E+02 3.00000E-03
1.80000E+01 1.46003E-04 1.07129E+02 3.00000E-03
1.90000E+01 1.27927E-04 9.34520E+01 3.00000E-03
2.00000E+01 1.12090E-04 8.14686E+01 3.00000E-03
2.10000E+01 9.82140E-05 7.09687E+01 3.00000E-03
2.20000E+01 8.60561E-05 6.17686E+01 3.00000E-03
2.30000E+01 7.54037E-05 5.37073E+01 3.00000E-03
2.40000E+01 6.60702E-05 4.66439E+01 3.00000E-03
2.50000E+01 5.78922E-05 4.04548E+01 3.00000E-03
2.75000E+01 4.10496E-05 2.81588E+01 3.00000E-03
3.00000E+01 2.85049E-05 1.95596E+01 3.00000E-03
3.25000E+01 1.97961E-05 1.35881E+01 3.00000E-03
3.50000E+01 1.37496E-05 9.44069E+00 3.00000E-03
3.75000E+01 9.55093E-06 6.55996E+00 3.00000E-03
4.00000E+01 6.63515E-06 4.55879E+00 3.00000E-03
4.25000E+01 4.61002E-06 3.16849E+00 3.00000E-03
4.50000E+01 3.20334E-06 2.20247E+00 3.00000E-03
4.75000E+01 2.22613E-06 1.53119E+00 3.00000E-03
5.00000E+01 1.54719E-06 1.06466E+00 3.00000E-03
5.50000E+01 7.47597E-07 5.15007E-01 3.00000E-03
6.00000E+01 3.61388E-07 2.49365E-01 3.00000E-03
6.50000E+01 1.74767E-07 1.20931E-01 3.00000E-03
7.00000E+01 8.45511E-08 5.88094E-02 3.00000E-03
7.50000E+01 4.09216E-08 2.87500E-02 3.00000E-03
8.00000E+01 1.98133E-08 1.41992E-02 3.00000E-03
8.50000E+01 9.59679E-09 7.15278E-03 3.00000E-03
9.00000E+01 4.65007E-09 3.73922E-03 3.00000E-03
9.50000E+01 2.25400E-09 2.08492E-03 3.00000E-03
1.00000E+02 1.00000E-09 1.28292E-03 3.00000E-03
1.05000E+02 9.52381E-10 7.82920E-04 3.00000E-03
1.10000E+02 9.09091E-10 2.82920E-04 3.00000E-03
1.15000E+02 8.69565E-10 1.00000E-05 3.00000E-03
1.20000E+02 8.33333E-10 0.00000E+00 3.00000E-03
