# Atmospheric Model 5202202102
# Col. #1          #2           #3            #4
# Alt [km]    rho [g/cm^3] thick [g/cm^2]    n-1
0.00000E+00 1.15931E-03 1.05282E+03 3.00000E-03
1.00000E+00 1.05518E-03 9.42175E+02 3.00000E-03
2.00000E+00 9.60419E-04 8.41470E+02 3.00000E-03
3.00000E+00 8.74189E-04 7.49807E+02 3.00000E-03
4.00000E+00 7.94031E-04 6.66392E+02 3.00000E-03
5.00000E+00 7.15867E-04 5.90965E+02 3.00000E-03
6.00000E+00 6.45400E-04 5.22962E+02 3.00000E-03
7.00000E+00 5.81870E-04 4.61654E+02 3.00000E-03
8.00000E+00 5.24595E-04 4.06380E+02 3.00000E-03
9.00000E+00 4.72959E-04 3.56547E+02 3.00000E-03
1.00000E+01 4.22226E-04 3.11688E+02 3.00000E-03
1.10000E+01 3.69202E-04 2.72176E+02 3.00000E-03
1.20000E+01 3.22837E-04 2.37626E+02 3.00000E-03
1.30000E+01 2.82295E-04 2.07414E+02 3.00000E-03
1.40000E+01 2.46845E-04 1.80997E+02 3.00000E-03
1.50000E+01 2.15847E-04 1.57897E+02 3.00000E-03
1.60000E+01 1.88742E-04 1.37698E+02 3.00000E-03
1.70000E+01 1.65041E-04 1.20035E+02 3.00000E-03
1.80000E+01 1.44316E-04 1.04590E+02 3.00000E-03
1.90000E+01 1.26194E-04 9.10852E+01 3.00000E-03
2.00000E+01 1.10348E-04 7.92758E+01 3.00000E-03
2.10000E+01 9.64919E-05 6.89493E+01 3.00000E-03
2.20000E+01 8.43757E-05 5.99194E+01 3.00000E-03
2.30000E+01 7.37810E-05 5.20234E+01 3.00000E-03
2.40000E+01 6.45167E-05 4.51189E+01 3.00000E-03
2.50000E+01 5.64158E-05 3.90814E+01 3.00000E-03
2.75000E+01 3.98041E-05 2.71289E+01 3.00000E-03
3.00000E+01 2.75756E-05 1.87998E+01 3.00000E-03
3.25000E+01 1.91059E-05 1.30292E+01 3.00000E-03
3.50000E+01 1.32389E-05 9.03089E+00 3.00000E-03
3.75000E+01 9.17446E-06 6.26022E+00 3.00000E-03
4.00000E+01 6.35847E-06 4.34008E+00 3.00000E-03
4.25000E+01 4.40726E-06 3.00925E+00 3.00000E-03
4.50000E+01 3.05511E-06 2.08676E+00 3.00000E-03
4.75000E+01 2.11801E-06 1.44726E+00 3.00000E-03
5.00000E+01 1.46850E-06 1.00389E+00 3.00000E-03
5.50000E+01 7.06141E-07 4.83300E-01 3.00000E-03
6.00000E+01 3.39687E-07 2.32927E-01 3.00000E-03
6.50000E+01 1.63469E-07 1.12464E-01 3.00000E-03
7.00000E+01 7.86970E-08 5.44842E-02 3.00000E-03
7.50000E+01 3.79007E-08 2.65666E-02 3.00000E-03
8.00000E+01 1.82600E-08 1.31192E-02 3.00000E-03
8.50000E+01 8.80073E-09 6.63939E-03 3.00000E-03
9.00000E+01 4.24324E-09 3.51581E-03 3.00000E-03
9.50000E+01 2.04662E-09 2.00955E-03 3.00000E-03
1.00000E+02 1.00000E-09 1.28292E-03 3.00000E-03
1.05000E+02 9.52381E-10 7.82920E-04 3.00000E-03
1.10000E+02 9.09091E-10 2.82920E-04 3.00000E-03
1.15000E+02 8.69565E-10 1.00000E-05 3.00000E-03
1.20000E+02 8.33333E-10 0.00000E+00 3.00000E-03
