# Atmospheric Model 5202202108
# Col. #1          #2           #3            #4
# Alt [km]    rho [g/cm^3] thick [g/cm^2]    n-1
0.00000E+00 1.14915E-03 1.05451E+03 3.00000E-03
1.00000E+00 1.04765E-03 9.44748E+02 3.00000E-03
2.00000E+00 9.55124E-04 8.44681E+02 3.00000E-03
3.00000E+00 8.70786E-04 7.53450E+02 3.00000E-03
4.00000E+00 7.91839E-04 6.70296E+02 3.00000E-03
5.00000E+00 7.12791E-04 5.95134E+02 3.00000E-03
6.00000E+00 6.41635E-04 5.27475E+02 3.00000E-03
7.00000E+00 5.77583E-04 4.66570E+02 3.00000E-03
8.00000E+00 5.19925E-04 4.11745E+02 3.00000E-03
9.00000E+00 4.68023E-04 3.62394E+02 3.00000E-03
1.00000E+01 4.18790E-04 3.17999E+02 3.00000E-03
1.10000E+01 3.67749E-04 2.78727E+02 3.00000E-03
1.20000E+01 3.22929E-04 2.44242E+02 3.00000E-03
1.30000E+01 2.83572E-04 2.13959E+02 3.00000E-03
1.40000E+01 2.49012E-04 1.87368E+02 3.00000E-03
1.50000E+01 2.18665E-04 1.64017E+02 3.00000E-03
1.60000E+01 1.92016E-04 1.43511E+02 3.00000E-03
1.70000E+01 1.68615E-04 1.25505E+02 3.00000E-03
1.80000E+01 1.48066E-04 1.09694E+02 3.00000E-03
1.90000E+01 1.30021E-04 9.58087E+01 3.00000E-03
2.00000E+01 1.14176E-04 8.36160E+01 3.00000E-03
2.10000E+01 1.00262E-04 7.29092E+01 3.00000E-03
2.20000E+01 8.80434E-05 6.35072E+01 3.00000E-03
2.30000E+01 7.73141E-05 5.52509E+01 3.00000E-03
2.40000E+01 6.78924E-05 4.80008E+01 3.00000E-03
2.50000E+01 5.96189E-05 4.16342E+01 3.00000E-03
2.75000E+01 4.25339E-05 2.89294E+01 3.00000E-03
3.00000E+01 2.94425E-05 2.00326E+01 3.00000E-03
3.25000E+01 2.03831E-05 1.38737E+01 3.00000E-03
3.50000E+01 1.41131E-05 9.60965E+00 3.00000E-03
3.75000E+01 9.77313E-06 6.65705E+00 3.00000E-03
4.00000E+01 6.76863E-06 4.61229E+00 3.00000E-03
4.25000E+01 4.68839E-06 3.19606E+00 3.00000E-03
4.50000E+01 3.24790E-06 2.21502E+00 3.00000E-03
4.75000E+01 2.25029E-06 1.53537E+00 3.00000E-03
5.00000E+01 1.55930E-06 1.06444E+00 3.00000E-03
5.50000E+01 7.48988E-07 5.11931E-01 3.00000E-03
6.00000E+01 3.59947E-07 2.46482E-01 3.00000E-03
6.50000E+01 1.73068E-07 1.18885E-01 3.00000E-03
7.00000E+01 8.32544E-08 5.75211E-02 3.00000E-03
7.50000E+01 4.00688E-08 2.79958E-02 3.00000E-03
8.00000E+01 1.92935E-08 1.37828E-02 3.00000E-03
8.50000E+01 9.29434E-09 6.93775E-03 3.00000E-03
9.00000E+01 4.47946E-09 3.63957E-03 3.00000E-03
9.50000E+01 2.15988E-09 2.04968E-03 3.00000E-03
1.00000E+02 1.00000E-09 1.28292E-03 3.00000E-03
1.05000E+02 9.52381E-10 7.82920E-04 3.00000E-03
1.10000E+02 9.09091E-10 2.82920E-04 3.00000E-03
1.15000E+02 8.69565E-10 1.00000E-05 3.00000E-03
1.20000E+02 8.33333E-10 0.00000E+00 3.00000E-03
