# Atmospheric Model 54022103
# Col. #1          #2           #3            #4
# Alt [km]    rho [g/cm^3] thick [g/cm^2]    n-1
0.00000E+00 1.20040E-03 1.04894E+03 3.00000E-03
1.00000E+00 1.08750E-03 9.34642E+02 3.00000E-03
2.00000E+00 9.85235E-04 8.31090E+02 3.00000E-03
3.00000E+00 8.92599E-04 7.37274E+02 3.00000E-03
4.00000E+00 8.06806E-04 6.52309E+02 3.00000E-03
5.00000E+00 7.25468E-04 5.75767E+02 3.00000E-03
6.00000E+00 6.52334E-04 5.06942E+02 3.00000E-03
7.00000E+00 5.86575E-04 4.45055E+02 3.00000E-03
8.00000E+00 5.27449E-04 3.89406E+02 3.00000E-03
9.00000E+00 4.74284E-04 3.39367E+02 3.00000E-03
1.00000E+01 4.17902E-04 2.94633E+02 3.00000E-03
1.10000E+01 3.62683E-04 2.55669E+02 3.00000E-03
1.20000E+01 3.14766E-04 2.21853E+02 3.00000E-03
1.30000E+01 2.73185E-04 1.92504E+02 3.00000E-03
1.40000E+01 2.37102E-04 1.67033E+02 3.00000E-03
1.50000E+01 2.05788E-04 1.44925E+02 3.00000E-03
1.60000E+01 1.78613E-04 1.25737E+02 3.00000E-03
1.70000E+01 1.55030E-04 1.09083E+02 3.00000E-03
1.80000E+01 1.34563E-04 9.46273E+01 3.00000E-03
1.90000E+01 1.16800E-04 8.20801E+01 3.00000E-03
2.00000E+01 1.01384E-04 7.11892E+01 3.00000E-03
2.10000E+01 8.80038E-05 6.17356E+01 3.00000E-03
2.20000E+01 7.63911E-05 5.35295E+01 3.00000E-03
2.30000E+01 6.63120E-05 4.64063E+01 3.00000E-03
2.40000E+01 5.75638E-05 4.02228E+01 3.00000E-03
2.50000E+01 4.99707E-05 3.48550E+01 3.00000E-03
2.75000E+01 3.50143E-05 2.43354E+01 3.00000E-03
3.00000E+01 2.44331E-05 1.69836E+01 3.00000E-03
3.25000E+01 1.70503E-05 1.18534E+01 3.00000E-03
3.50000E+01 1.18989E-05 8.27333E+00 3.00000E-03
3.75000E+01 8.30421E-06 5.77483E+00 3.00000E-03
4.00000E+01 5.79576E-06 4.03109E+00 3.00000E-03
4.25000E+01 4.04522E-06 2.81406E+00 3.00000E-03
4.50000E+01 2.82354E-06 1.96460E+00 3.00000E-03
4.75000E+01 1.97089E-06 1.37167E+00 3.00000E-03
5.00000E+01 1.37579E-06 9.57785E-01 3.00000E-03
5.50000E+01 6.70485E-07 4.67166E-01 3.00000E-03
6.00000E+01 3.26814E-07 2.28048E-01 3.00000E-03
6.50000E+01 1.59326E-07 1.11486E-01 3.00000E-03
7.00000E+01 7.76869E-08 5.46557E-02 3.00000E-03
7.50000E+01 3.78863E-08 2.69435E-02 3.00000E-03
8.00000E+01 1.84795E-08 1.34279E-02 3.00000E-03
8.50000E+01 9.01508E-09 6.83498E-03 3.00000E-03
9.00000E+01 4.39867E-09 3.61844E-03 3.00000E-03
9.50000E+01 2.14656E-09 2.04891E-03 3.00000E-03
1.00000E+02 1.00000E-09 1.28292E-03 3.00000E-03
1.05000E+02 9.52381E-10 7.82920E-04 3.00000E-03
1.10000E+02 9.09091E-10 2.82920E-04 3.00000E-03
1.15000E+02 8.69565E-10 1.00000E-05 3.00000E-03
1.20000E+02 8.33333E-10 0.00000E+00 3.00000E-03
