# Atmospheric Model 54022107
# Col. #1          #2           #3            #4
# Alt [km]    rho [g/cm^3] thick [g/cm^2]    n-1
0.00000E+00 1.26022E-03 1.05176E+03 3.00000E-03
1.00000E+00 1.13182E-03 9.32274E+02 3.00000E-03
2.00000E+00 1.01652E-03 8.24961E+02 3.00000E-03
3.00000E+00 9.12978E-04 7.28578E+02 3.00000E-03
4.00000E+00 8.19520E-04 6.42026E+02 3.00000E-03
5.00000E+00 7.35440E-04 5.64354E+02 3.00000E-03
6.00000E+00 6.59993E-04 4.94651E+02 3.00000E-03
7.00000E+00 5.92292E-04 4.32098E+02 3.00000E-03
8.00000E+00 5.31542E-04 3.75961E+02 3.00000E-03
9.00000E+00 4.76934E-04 3.25582E+02 3.00000E-03
1.00000E+01 4.14554E-04 2.80947E+02 3.00000E-03
1.10000E+01 3.57459E-04 2.42417E+02 3.00000E-03
1.20000E+01 3.08234E-04 2.09193E+02 3.00000E-03
1.30000E+01 2.65794E-04 1.80544E+02 3.00000E-03
1.40000E+01 2.29203E-04 1.55840E+02 3.00000E-03
1.50000E+01 1.97653E-04 1.34536E+02 3.00000E-03
1.60000E+01 1.70450E-04 1.16164E+02 3.00000E-03
1.70000E+01 1.46995E-04 1.00321E+02 3.00000E-03
1.80000E+01 1.26770E-04 8.66575E+01 3.00000E-03
1.90000E+01 1.09330E-04 7.48741E+01 3.00000E-03
2.00000E+01 9.42913E-05 6.47116E+01 3.00000E-03
2.10000E+01 8.13232E-05 5.59469E+01 3.00000E-03
2.20000E+01 7.01401E-05 4.83875E+01 3.00000E-03
2.30000E+01 6.04963E-05 4.18676E+01 3.00000E-03
2.40000E+01 5.21796E-05 3.62440E+01 3.00000E-03
2.50000E+01 4.50072E-05 3.13935E+01 3.00000E-03
2.75000E+01 3.13165E-05 2.19717E+01 3.00000E-03
3.00000E+01 2.19280E-05 1.53857E+01 3.00000E-03
3.25000E+01 1.53544E-05 1.07741E+01 3.00000E-03
3.50000E+01 1.07516E-05 7.54493E+00 3.00000E-03
3.75000E+01 7.52879E-06 5.28375E+00 3.00000E-03
4.00000E+01 5.27211E-06 3.70036E+00 3.00000E-03
4.25000E+01 3.69191E-06 2.59156E+00 3.00000E-03
4.50000E+01 2.58539E-06 1.81510E+00 3.00000E-03
4.75000E+01 1.81055E-06 1.27134E+00 3.00000E-03
5.00000E+01 1.26795E-06 8.90551E-01 3.00000E-03
5.50000E+01 6.21882E-07 4.37114E-01 3.00000E-03
6.00000E+01 3.05032E-07 2.14712E-01 3.00000E-03
6.50000E+01 1.49629E-07 1.05621E-01 3.00000E-03
7.00000E+01 7.34033E-08 5.21062E-02 3.00000E-03
7.50000E+01 3.60119E-08 2.58528E-02 3.00000E-03
8.00000E+01 1.76688E-08 1.29723E-02 3.00000E-03
8.50000E+01 8.66958E-09 6.65251E-03 3.00000E-03
9.00000E+01 4.25420E-09 3.55146E-03 3.00000E-03
9.50000E+01 2.08770E-09 2.02972E-03 3.00000E-03
1.00000E+02 1.00000E-09 1.28292E-03 3.00000E-03
1.05000E+02 9.52381E-10 7.82920E-04 3.00000E-03
1.10000E+02 9.09091E-10 2.82920E-04 3.00000E-03
1.15000E+02 8.69565E-10 1.00000E-05 3.00000E-03
1.20000E+02 8.33333E-10 0.00000E+00 3.00000E-03
