# Atmospheric Model 7202202101
# Col. #1          #2           #3            #4
# Alt [km]    rho [g/cm^3] thick [g/cm^2]    n-1
0.00000E+00 1.25714E-03 1.00251E+03 3.00000E-03
1.00000E+00 1.12504E-03 8.83521E+02 3.00000E-03
2.00000E+00 1.00684E-03 7.77037E+02 3.00000E-03
3.00000E+00 9.01063E-04 6.81740E+02 3.00000E-03
4.00000E+00 8.05848E-04 5.96480E+02 3.00000E-03
5.00000E+00 7.20681E-04 5.20233E+02 3.00000E-03
6.00000E+00 6.44521E-04 4.52044E+02 3.00000E-03
7.00000E+00 5.76415E-04 3.91061E+02 3.00000E-03
8.00000E+00 5.15511E-04 3.36521E+02 3.00000E-03
9.00000E+00 4.53783E-04 2.87878E+02 3.00000E-03
1.00000E+01 3.87084E-04 2.45923E+02 3.00000E-03
1.10000E+01 3.30193E-04 2.10134E+02 3.00000E-03
1.20000E+01 2.81668E-04 1.79605E+02 3.00000E-03
1.30000E+01 2.40277E-04 1.53563E+02 3.00000E-03
1.40000E+01 2.04972E-04 1.31347E+02 3.00000E-03
1.50000E+01 1.74857E-04 1.12396E+02 3.00000E-03
1.60000E+01 1.49168E-04 9.62284E+01 3.00000E-03
1.70000E+01 1.27256E-04 8.24363E+01 3.00000E-03
1.80000E+01 1.08563E-04 7.06701E+01 3.00000E-03
1.90000E+01 9.26181E-05 6.06321E+01 3.00000E-03
2.00000E+01 7.90159E-05 5.20684E+01 3.00000E-03
2.10000E+01 6.74124E-05 4.47624E+01 3.00000E-03
2.20000E+01 5.75137E-05 3.85292E+01 3.00000E-03
2.30000E+01 4.90691E-05 3.32112E+01 3.00000E-03
2.40000E+01 4.18651E-05 2.86740E+01 3.00000E-03
2.50000E+01 3.57192E-05 2.48029E+01 3.00000E-03
2.75000E+01 2.43271E-05 1.74215E+01 3.00000E-03
3.00000E+01 1.71580E-05 1.22879E+01 3.00000E-03
3.25000E+01 1.21017E-05 8.66715E+00 3.00000E-03
3.50000E+01 8.53549E-06 6.11339E+00 3.00000E-03
3.75000E+01 6.02026E-06 4.31218E+00 3.00000E-03
4.00000E+01 4.24625E-06 3.04174E+00 3.00000E-03
4.25000E+01 2.99502E-06 2.14566E+00 3.00000E-03
4.50000E+01 2.11251E-06 1.51363E+00 3.00000E-03
4.75000E+01 1.49005E-06 1.06783E+00 3.00000E-03
5.00000E+01 1.05100E-06 7.53383E-01 3.00000E-03
5.50000E+01 5.22909E-07 3.75144E-01 3.00000E-03
6.00000E+01 2.60173E-07 1.86954E-01 3.00000E-03
6.50000E+01 1.29454E-07 9.33191E-02 3.00000E-03
7.00000E+01 6.44140E-08 4.67287E-02 3.00000E-03
7.50000E+01 3.20525E-08 2.35457E-02 3.00000E-03
8.00000E+01 1.59499E-08 1.20096E-02 3.00000E-03
8.50000E+01 7.93725E-09 6.26900E-03 3.00000E-03
9.00000E+01 3.95000E-09 3.41220E-03 3.00000E-03
9.50000E+01 1.96580E-09 1.99048E-03 3.00000E-03
1.00000E+02 1.00000E-09 1.28292E-03 3.00000E-03
1.05000E+02 9.52381E-10 7.82920E-04 3.00000E-03
1.10000E+02 9.09091E-10 2.82920E-04 3.00000E-03
1.15000E+02 8.69565E-10 1.00000E-05 3.00000E-03
1.20000E+02 8.33333E-10 0.00000E+00 3.00000E-03
