# Atmospheric Model 72022105
# Col. #1          #2           #3            #4
# Alt [km]    rho [g/cm^3] thick [g/cm^2]    n-1
0.00000E+00 1.29296E-03 1.01631E+03 3.00000E-03
1.00000E+00 1.14643E-03 8.94489E+02 3.00000E-03
2.00000E+00 1.01658E-03 7.86470E+02 3.00000E-03
3.00000E+00 9.01506E-04 6.90682E+02 3.00000E-03
4.00000E+00 8.05765E-04 6.05490E+02 3.00000E-03
5.00000E+00 7.22433E-04 5.29157E+02 3.00000E-03
6.00000E+00 6.47751E-04 4.60716E+02 3.00000E-03
7.00000E+00 5.80817E-04 3.99348E+02 3.00000E-03
8.00000E+00 5.20824E-04 3.44321E+02 3.00000E-03
9.00000E+00 4.59806E-04 2.95155E+02 3.00000E-03
1.00000E+01 3.92946E-04 2.52601E+02 3.00000E-03
1.10000E+01 3.35746E-04 2.16241E+02 3.00000E-03
1.20000E+01 2.86877E-04 1.85174E+02 3.00000E-03
1.30000E+01 2.45126E-04 1.58629E+02 3.00000E-03
1.40000E+01 2.09454E-04 1.35947E+02 3.00000E-03
1.50000E+01 1.78977E-04 1.16565E+02 3.00000E-03
1.60000E+01 1.52937E-04 1.00003E+02 3.00000E-03
1.70000E+01 1.30687E-04 8.58514E+01 3.00000E-03
1.80000E+01 1.11677E-04 7.37581E+01 3.00000E-03
1.90000E+01 9.54332E-05 6.34239E+01 3.00000E-03
2.00000E+01 8.15536E-05 5.45928E+01 3.00000E-03
2.10000E+01 6.96938E-05 4.70459E+01 3.00000E-03
2.20000E+01 5.95598E-05 4.05965E+01 3.00000E-03
2.30000E+01 5.09001E-05 3.50849E+01 3.00000E-03
2.40000E+01 4.35003E-05 3.03745E+01 3.00000E-03
2.50000E+01 3.71833E-05 2.63489E+01 3.00000E-03
2.75000E+01 2.59933E-05 1.85589E+01 3.00000E-03
3.00000E+01 1.83142E-05 1.30764E+01 3.00000E-03
3.25000E+01 1.29037E-05 9.21353E+00 3.00000E-03
3.50000E+01 9.09165E-06 6.49186E+00 3.00000E-03
3.75000E+01 6.40579E-06 4.57424E+00 3.00000E-03
4.00000E+01 4.51340E-06 3.22312E+00 3.00000E-03
4.25000E+01 3.18007E-06 2.27114E+00 3.00000E-03
4.50000E+01 2.24063E-06 1.60039E+00 3.00000E-03
4.75000E+01 1.57872E-06 1.12779E+00 3.00000E-03
5.00000E+01 1.11235E-06 7.94803E-01 3.00000E-03
5.50000E+01 5.52228E-07 3.94870E-01 3.00000E-03
6.00000E+01 2.74158E-07 1.96321E-01 3.00000E-03
6.50000E+01 1.36109E-07 9.77501E-02 3.00000E-03
7.00000E+01 6.75740E-08 4.88128E-02 3.00000E-03
7.50000E+01 3.35488E-08 2.45168E-02 3.00000E-03
8.00000E+01 1.66564E-08 1.24543E-02 3.00000E-03
8.50000E+01 8.26968E-09 6.46554E-03 3.00000E-03
9.00000E+01 4.10584E-09 3.49216E-03 3.00000E-03
9.50000E+01 2.03854E-09 2.01589E-03 3.00000E-03
1.00000E+02 1.00000E-09 1.28292E-03 3.00000E-03
1.05000E+02 9.52381E-10 7.82920E-04 3.00000E-03
1.10000E+02 9.09091E-10 2.82920E-04 3.00000E-03
1.15000E+02 8.69565E-10 1.00000E-05 3.00000E-03
1.20000E+02 8.33333E-10 0.00000E+00 3.00000E-03
