# Atmospheric Model 72022102
# Col. #1          #2           #3            #4
# Alt [km]    rho [g/cm^3] thick [g/cm^2]    n-1
0.00000E+00 1.25315E-03 1.00484E+03 3.00000E-03
1.00000E+00 1.12069E-03 8.86270E+02 3.00000E-03
2.00000E+00 1.00225E-03 7.80234E+02 3.00000E-03
3.00000E+00 8.96342E-04 6.85403E+02 3.00000E-03
4.00000E+00 8.00204E-04 6.00664E+02 3.00000E-03
5.00000E+00 7.14486E-04 5.25011E+02 3.00000E-03
6.00000E+00 6.37967E-04 4.57460E+02 3.00000E-03
7.00000E+00 5.69659E-04 3.97143E+02 3.00000E-03
8.00000E+00 5.08679E-04 3.43284E+02 3.00000E-03
9.00000E+00 4.49343E-04 2.95285E+02 3.00000E-03
1.00000E+01 3.85633E-04 2.53610E+02 3.00000E-03
1.10000E+01 3.30844E-04 2.17857E+02 3.00000E-03
1.20000E+01 2.83848E-04 1.87182E+02 3.00000E-03
1.30000E+01 2.43535E-04 1.60864E+02 3.00000E-03
1.40000E+01 2.08954E-04 1.38284E+02 3.00000E-03
1.50000E+01 1.79289E-04 1.18910E+02 3.00000E-03
1.60000E+01 1.53840E-04 1.02286E+02 3.00000E-03
1.70000E+01 1.32008E-04 8.80214E+01 3.00000E-03
1.80000E+01 1.13278E-04 7.57809E+01 3.00000E-03
1.90000E+01 9.72084E-05 6.52771E+01 3.00000E-03
2.00000E+01 8.34211E-05 5.62632E+01 3.00000E-03
2.10000E+01 7.15916E-05 4.85277E+01 3.00000E-03
2.20000E+01 6.14416E-05 4.18890E+01 3.00000E-03
2.30000E+01 5.27323E-05 3.61914E+01 3.00000E-03
2.40000E+01 4.52589E-05 3.13014E+01 3.00000E-03
2.50000E+01 3.88460E-05 2.71043E+01 3.00000E-03
2.75000E+01 2.67700E-05 1.90214E+01 3.00000E-03
3.00000E+01 1.88290E-05 1.33796E+01 3.00000E-03
3.25000E+01 1.32438E-05 9.41134E+00 3.00000E-03
3.50000E+01 9.31546E-06 6.62017E+00 3.00000E-03
3.75000E+01 6.55240E-06 4.65691E+00 3.00000E-03
4.00000E+01 4.60896E-06 3.27595E+00 3.00000E-03
4.25000E+01 3.24198E-06 2.30458E+00 3.00000E-03
4.50000E+01 2.28046E-06 1.62131E+00 3.00000E-03
4.75000E+01 1.60414E-06 1.14068E+00 3.00000E-03
5.00000E+01 1.12841E-06 8.02596E-01 3.00000E-03
5.50000E+01 5.58380E-07 3.97474E-01 3.00000E-03
6.00000E+01 2.76322E-07 1.96999E-01 3.00000E-03
6.50000E+01 1.36748E-07 9.77895E-02 3.00000E-03
7.00000E+01 6.76784E-08 4.86908E-02 3.00000E-03
7.50000E+01 3.34964E-08 2.43907E-02 3.00000E-03
8.00000E+01 1.65793E-08 1.23635E-02 3.00000E-03
8.50000E+01 8.20647E-09 6.41042E-03 3.00000E-03
9.00000E+01 4.06224E-09 3.46369E-03 3.00000E-03
9.50000E+01 2.01092E-09 2.00502E-03 3.00000E-03
1.00000E+02 1.00000E-09 1.28292E-03 3.00000E-03
1.05000E+02 9.52381E-10 7.82920E-04 3.00000E-03
1.10000E+02 9.09091E-10 2.82920E-04 3.00000E-03
1.15000E+02 8.69565E-10 1.00000E-05 3.00000E-03
1.20000E+02 8.33333E-10 0.00000E+00 3.00000E-03
