# Atmospheric Model 72022109
# Col. #1          #2           #3            #4
# Alt [km]    rho [g/cm^3] thick [g/cm^2]    n-1
0.00000E+00 1.27750E-03 1.01453E+03 3.00000E-03
1.00000E+00 1.13784E-03 8.93894E+02 3.00000E-03
2.00000E+00 1.01352E-03 7.86446E+02 3.00000E-03
3.00000E+00 9.02847E-04 6.90735E+02 3.00000E-03
4.00000E+00 8.07607E-04 6.05335E+02 3.00000E-03
5.00000E+00 7.23192E-04 5.28873E+02 3.00000E-03
6.00000E+00 6.47611E-04 4.60402E+02 3.00000E-03
7.00000E+00 5.79938E-04 3.99087E+02 3.00000E-03
8.00000E+00 5.19345E-04 3.44179E+02 3.00000E-03
9.00000E+00 4.54294E-04 2.95323E+02 3.00000E-03
1.00000E+01 3.88873E-04 2.53250E+02 3.00000E-03
1.10000E+01 3.32882E-04 2.17234E+02 3.00000E-03
1.20000E+01 2.84959E-04 1.86405E+02 3.00000E-03
1.30000E+01 2.43941E-04 1.60013E+02 3.00000E-03
1.40000E+01 2.08832E-04 1.37420E+02 3.00000E-03
1.50000E+01 1.78781E-04 1.18078E+02 3.00000E-03
1.60000E+01 1.53057E-04 1.01519E+02 3.00000E-03
1.70000E+01 1.31038E-04 8.73431E+01 3.00000E-03
1.80000E+01 1.12189E-04 7.52061E+01 3.00000E-03
1.90000E+01 9.60542E-05 6.48148E+01 3.00000E-03
2.00000E+01 8.22415E-05 5.59179E+01 3.00000E-03
2.10000E+01 7.04168E-05 4.83003E+01 3.00000E-03
2.20000E+01 6.02936E-05 4.17779E+01 3.00000E-03
2.30000E+01 5.16270E-05 3.61931E+01 3.00000E-03
2.40000E+01 4.42072E-05 3.14109E+01 3.00000E-03
2.50000E+01 3.82315E-05 2.73027E+01 3.00000E-03
2.75000E+01 2.69373E-05 1.92388E+01 3.00000E-03
3.00000E+01 1.89802E-05 1.35571E+01 3.00000E-03
3.25000E+01 1.33740E-05 9.55361E+00 3.00000E-03
3.50000E+01 9.42392E-06 6.73263E+00 3.00000E-03
3.75000E+01 6.64073E-06 4.74481E+00 3.00000E-03
4.00000E+01 4.67965E-06 3.34404E+00 3.00000E-03
4.25000E+01 3.29779E-06 2.35692E+00 3.00000E-03
4.50000E+01 2.32404E-06 1.66127E+00 3.00000E-03
4.75000E+01 1.63787E-06 1.17103E+00 3.00000E-03
5.00000E+01 1.15432E-06 8.25523E-01 3.00000E-03
5.50000E+01 5.73396E-07 4.10398E-01 3.00000E-03
6.00000E+01 2.84860E-07 2.04179E-01 3.00000E-03
6.50000E+01 1.41533E-07 1.01725E-01 3.00000E-03
7.00000E+01 7.03282E-08 5.08186E-02 3.00000E-03
7.50000E+01 3.49501E-08 2.55217E-02 3.00000E-03
8.00000E+01 1.73705E-08 1.29497E-02 3.00000E-03
8.50000E+01 8.63420E-09 6.70096E-03 3.00000E-03
9.00000E+01 4.29217E-09 3.59482E-03 3.00000E-03
9.50000E+01 2.13391E-09 2.05066E-03 3.00000E-03
1.00000E+02 1.00000E-09 1.28292E-03 3.00000E-03
1.05000E+02 9.52381E-10 7.82920E-04 3.00000E-03
1.10000E+02 9.09091E-10 2.82920E-04 3.00000E-03
1.15000E+02 8.69565E-10 1.00000E-05 3.00000E-03
1.20000E+02 8.33333E-10 0.00000E+00 3.00000E-03
