# Atmospheric Model 5408202108
# Col. #1          #2           #3            #4
# Alt [km]    rho [g/cm^3] thick [g/cm^2]    n-1
0.00000E+00 1.16471E-03 1.04719E+03 3.00000E-03
1.00000E+00 1.05822E-03 9.36130E+02 3.00000E-03
2.00000E+00 9.61467E-04 8.35223E+02 3.00000E-03
3.00000E+00 8.73560E-04 7.43542E+02 3.00000E-03
4.00000E+00 7.92507E-04 6.60258E+02 3.00000E-03
5.00000E+00 7.15724E-04 5.84912E+02 3.00000E-03
6.00000E+00 6.46391E-04 5.16865E+02 3.00000E-03
7.00000E+00 5.83786E-04 4.55410E+02 3.00000E-03
8.00000E+00 5.27254E-04 3.99906E+02 3.00000E-03
9.00000E+00 4.76205E-04 3.49776E+02 3.00000E-03
1.00000E+01 4.23510E-04 3.04646E+02 3.00000E-03
1.10000E+01 3.68735E-04 2.65097E+02 3.00000E-03
1.20000E+01 3.21051E-04 2.30662E+02 3.00000E-03
1.30000E+01 2.79538E-04 2.00681E+02 3.00000E-03
1.40000E+01 2.43397E-04 1.74576E+02 3.00000E-03
1.50000E+01 2.11933E-04 1.51846E+02 3.00000E-03
1.60000E+01 1.84539E-04 1.32054E+02 3.00000E-03
1.70000E+01 1.60689E-04 1.14820E+02 3.00000E-03
1.80000E+01 1.39924E-04 9.98131E+01 3.00000E-03
1.90000E+01 1.21845E-04 8.67455E+01 3.00000E-03
2.00000E+01 1.06103E-04 7.53663E+01 3.00000E-03
2.10000E+01 9.23968E-05 6.54571E+01 3.00000E-03
2.20000E+01 8.04626E-05 5.68279E+01 3.00000E-03
2.30000E+01 7.00712E-05 4.93132E+01 3.00000E-03
2.40000E+01 6.10228E-05 4.27689E+01 3.00000E-03
2.50000E+01 5.31438E-05 3.70697E+01 3.00000E-03
2.75000E+01 3.74235E-05 2.58440E+01 3.00000E-03
3.00000E+01 2.60538E-05 1.79949E+01 3.00000E-03
3.25000E+01 1.81393E-05 1.25304E+01 3.00000E-03
3.50000E+01 1.26296E-05 8.72576E+00 3.00000E-03
3.75000E+01 8.79393E-06 6.07669E+00 3.00000E-03
4.00000E+01 6.12346E-06 4.23212E+00 3.00000E-03
4.25000E+01 4.26415E-06 2.94766E+00 3.00000E-03
4.50000E+01 2.96954E-06 2.05319E+00 3.00000E-03
4.75000E+01 2.06808E-06 1.43027E+00 3.00000E-03
5.00000E+01 1.44035E-06 9.96435E-01 3.00000E-03
5.50000E+01 6.98765E-07 4.83823E-01 3.00000E-03
6.00000E+01 3.39063E-07 2.35115E-01 3.00000E-03
6.50000E+01 1.64556E-07 1.14424E-01 3.00000E-03
7.00000E+01 7.98787E-08 5.58441E-02 3.00000E-03
7.50000E+01 3.87822E-08 2.74060E-02 3.00000E-03
8.00000E+01 1.88329E-08 1.35977E-02 3.00000E-03
8.50000E+01 9.14712E-09 6.89177E-03 3.00000E-03
9.00000E+01 4.44359E-09 3.63443E-03 3.00000E-03
9.50000E+01 2.15906E-09 2.05190E-03 3.00000E-03
1.00000E+02 1.00000E-09 1.28292E-03 3.00000E-03
1.05000E+02 9.52381E-10 7.82920E-04 3.00000E-03
1.10000E+02 9.09091E-10 2.82920E-04 3.00000E-03
1.15000E+02 8.69565E-10 1.00000E-05 3.00000E-03
1.20000E+02 8.33333E-10 0.00000E+00 3.00000E-03
