# Atmospheric Model 54082104
# Col. #1          #2           #3            #4
# Alt [km]    rho [g/cm^3] thick [g/cm^2]    n-1
0.00000E+00 1.15226E-03 1.04651E+03 3.00000E-03
1.00000E+00 1.04845E-03 9.36561E+02 3.00000E-03
2.00000E+00 9.53997E-04 8.36512E+02 3.00000E-03
3.00000E+00 8.68052E-04 7.45478E+02 3.00000E-03
4.00000E+00 7.88521E-04 6.62660E+02 3.00000E-03
5.00000E+00 7.12478E-04 5.87674E+02 3.00000E-03
6.00000E+00 6.43774E-04 5.19920E+02 3.00000E-03
7.00000E+00 5.81699E-04 4.58699E+02 3.00000E-03
8.00000E+00 5.25614E-04 4.03381E+02 3.00000E-03
9.00000E+00 4.74941E-04 3.53396E+02 3.00000E-03
1.00000E+01 4.23590E-04 3.08337E+02 3.00000E-03
1.10000E+01 3.69522E-04 2.68743E+02 3.00000E-03
1.20000E+01 3.22358E-04 2.34203E+02 3.00000E-03
1.30000E+01 2.81217E-04 2.04071E+02 3.00000E-03
1.40000E+01 2.45330E-04 1.77785E+02 3.00000E-03
1.50000E+01 2.14024E-04 1.54852E+02 3.00000E-03
1.60000E+01 1.86715E-04 1.34847E+02 3.00000E-03
1.70000E+01 1.62893E-04 1.17393E+02 3.00000E-03
1.80000E+01 1.42111E-04 1.02167E+02 3.00000E-03
1.90000E+01 1.23982E-04 8.88827E+01 3.00000E-03
2.00000E+01 1.08167E-04 7.72932E+01 3.00000E-03
2.10000E+01 9.43701E-05 6.71820E+01 3.00000E-03
2.20000E+01 8.23340E-05 5.83605E+01 3.00000E-03
2.30000E+01 7.18338E-05 5.06641E+01 3.00000E-03
2.40000E+01 6.26733E-05 4.39491E+01 3.00000E-03
2.50000E+01 5.46816E-05 3.80905E+01 3.00000E-03
2.75000E+01 3.85667E-05 2.65218E+01 3.00000E-03
3.00000E+01 2.68069E-05 1.84390E+01 3.00000E-03
3.25000E+01 1.86345E-05 1.28207E+01 3.00000E-03
3.50000E+01 1.29546E-05 8.91500E+00 3.00000E-03
3.75000E+01 9.00667E-06 6.19969E+00 3.00000E-03
4.00000E+01 6.26240E-06 4.31180E+00 3.00000E-03
4.25000E+01 4.35464E-06 2.99909E+00 3.00000E-03
4.50000E+01 3.02830E-06 2.08624E+00 3.00000E-03
4.75000E+01 2.10610E-06 1.45141E+00 3.00000E-03
5.00000E+01 1.46485E-06 1.00988E+00 3.00000E-03
5.50000E+01 7.08805E-07 4.89154E-01 3.00000E-03
6.00000E+01 3.43079E-07 2.37151E-01 3.00000E-03
6.50000E+01 1.66110E-07 1.15158E-01 3.00000E-03
7.00000E+01 8.04503E-08 5.60851E-02 3.00000E-03
7.50000E+01 3.89754E-08 2.74709E-02 3.00000E-03
8.00000E+01 1.88878E-08 1.36065E-02 3.00000E-03
8.50000E+01 9.15585E-09 6.88690E-03 3.00000E-03
9.00000E+01 4.43957E-09 3.62914E-03 3.00000E-03
9.50000E+01 2.15331E-09 2.04928E-03 3.00000E-03
1.00000E+02 1.00000E-09 1.28292E-03 3.00000E-03
1.05000E+02 9.52381E-10 7.82920E-04 3.00000E-03
1.10000E+02 9.09091E-10 2.82920E-04 3.00000E-03
1.15000E+02 8.69565E-10 1.00000E-05 3.00000E-03
1.20000E+02 8.33333E-10 0.00000E+00 3.00000E-03
