# Atmospheric Model 5408202107
# Col. #1          #2           #3            #4
# Alt [km]    rho [g/cm^3] thick [g/cm^2]    n-1
0.00000E+00 1.17021E-03 1.05101E+03 3.00000E-03
1.00000E+00 1.06287E-03 9.39443E+02 3.00000E-03
2.00000E+00 9.65374E-04 8.38109E+02 3.00000E-03
3.00000E+00 8.76823E-04 7.46070E+02 3.00000E-03
4.00000E+00 7.95010E-04 6.62491E+02 3.00000E-03
5.00000E+00 7.17006E-04 5.86957E+02 3.00000E-03
6.00000E+00 6.46665E-04 5.18834E+02 3.00000E-03
7.00000E+00 5.83235E-04 4.57394E+02 3.00000E-03
8.00000E+00 5.26035E-04 4.01979E+02 3.00000E-03
9.00000E+00 4.74451E-04 3.52000E+02 3.00000E-03
1.00000E+01 4.22245E-04 3.07039E+02 3.00000E-03
1.10000E+01 3.68252E-04 2.67576E+02 3.00000E-03
1.20000E+01 3.21167E-04 2.33159E+02 3.00000E-03
1.30000E+01 2.80106E-04 2.03142E+02 3.00000E-03
1.40000E+01 2.44297E-04 1.76962E+02 3.00000E-03
1.50000E+01 2.13069E-04 1.54130E+02 3.00000E-03
1.60000E+01 1.85835E-04 1.34216E+02 3.00000E-03
1.70000E+01 1.62083E-04 1.16847E+02 3.00000E-03
1.80000E+01 1.41369E-04 1.01698E+02 3.00000E-03
1.90000E+01 1.23304E-04 8.84847E+01 3.00000E-03
2.00000E+01 1.07548E-04 7.69601E+01 3.00000E-03
2.10000E+01 9.38068E-05 6.69080E+01 3.00000E-03
2.20000E+01 8.18222E-05 5.81402E+01 3.00000E-03
2.30000E+01 7.13695E-05 5.04926E+01 3.00000E-03
2.40000E+01 6.22529E-05 4.38218E+01 3.00000E-03
2.50000E+01 5.43015E-05 3.80032E+01 3.00000E-03
2.75000E+01 3.83292E-05 2.65149E+01 3.00000E-03
3.00000E+01 2.67005E-05 1.84737E+01 3.00000E-03
3.25000E+01 1.86009E-05 1.28719E+01 3.00000E-03
3.50000E+01 1.29591E-05 8.96929E+00 3.00000E-03
3.75000E+01 9.02898E-06 6.25032E+00 3.00000E-03
4.00000E+01 6.29113E-06 4.35588E+00 3.00000E-03
4.25000E+01 4.38372E-06 3.03585E+00 3.00000E-03
4.50000E+01 3.05479E-06 2.11602E+00 3.00000E-03
4.75000E+01 2.12885E-06 1.47502E+00 3.00000E-03
5.00000E+01 1.48366E-06 1.02830E+00 3.00000E-03
5.50000E+01 7.20748E-07 4.99958E-01 3.00000E-03
6.00000E+01 3.50211E-07 2.43271E-01 3.00000E-03
6.50000E+01 1.70205E-07 1.18534E-01 3.00000E-03
7.00000E+01 8.27386E-08 5.79058E-02 3.00000E-03
7.50000E+01 4.02290E-08 2.84307E-02 3.00000E-03
8.00000E+01 1.95642E-08 1.40981E-02 3.00000E-03
8.50000E+01 9.51654E-09 7.12715E-03 3.00000E-03
9.00000E+01 4.63006E-09 3.73599E-03 3.00000E-03
9.50000E+01 2.25312E-09 2.08595E-03 3.00000E-03
1.00000E+02 1.00000E-09 1.28292E-03 3.00000E-03
1.05000E+02 9.52381E-10 7.82920E-04 3.00000E-03
1.10000E+02 9.09091E-10 2.82920E-04 3.00000E-03
1.15000E+02 8.69565E-10 1.00000E-05 3.00000E-03
1.20000E+02 8.33333E-10 0.00000E+00 3.00000E-03
