# Atmospheric Model 54082101
# Col. #1          #2           #3            #4
# Alt [km]    rho [g/cm^3] thick [g/cm^2]    n-1
0.00000E+00 1.13966E-03 1.04486E+03 3.00000E-03
1.00000E+00 1.03771E-03 9.36075E+02 3.00000E-03
2.00000E+00 9.44871E-04 8.37018E+02 3.00000E-03
3.00000E+00 8.60343E-04 7.46824E+02 3.00000E-03
4.00000E+00 7.81958E-04 6.64715E+02 3.00000E-03
5.00000E+00 7.06583E-04 5.90352E+02 3.00000E-03
6.00000E+00 6.38481E-04 5.23156E+02 3.00000E-03
7.00000E+00 5.76948E-04 4.62437E+02 3.00000E-03
8.00000E+00 5.21352E-04 4.07569E+02 3.00000E-03
9.00000E+00 4.71117E-04 3.57988E+02 3.00000E-03
1.00000E+01 4.21497E-04 3.13252E+02 3.00000E-03
1.10000E+01 3.68865E-04 2.73792E+02 3.00000E-03
1.20000E+01 3.22807E-04 2.39260E+02 3.00000E-03
1.30000E+01 2.82501E-04 2.09039E+02 3.00000E-03
1.40000E+01 2.47231E-04 1.82592E+02 3.00000E-03
1.50000E+01 2.16365E-04 1.59446E+02 3.00000E-03
1.60000E+01 1.89354E-04 1.39191E+02 3.00000E-03
1.70000E+01 1.65716E-04 1.21463E+02 3.00000E-03
1.80000E+01 1.45030E-04 1.05949E+02 3.00000E-03
1.90000E+01 1.26927E-04 9.23714E+01 3.00000E-03
2.00000E+01 1.11084E-04 8.04884E+01 3.00000E-03
2.10000E+01 9.72197E-05 7.00886E+01 3.00000E-03
2.20000E+01 8.50862E-05 6.09868E+01 3.00000E-03
2.30000E+01 7.44675E-05 5.30209E+01 3.00000E-03
2.40000E+01 6.51745E-05 4.60491E+01 3.00000E-03
2.50000E+01 5.70416E-05 3.99474E+01 3.00000E-03
2.75000E+01 4.03956E-05 2.78446E+01 3.00000E-03
3.00000E+01 2.81005E-05 1.93754E+01 3.00000E-03
3.25000E+01 1.95497E-05 1.34837E+01 3.00000E-03
3.50000E+01 1.36024E-05 9.38458E+00 3.00000E-03
3.75000E+01 9.46530E-06 6.53233E+00 3.00000E-03
4.00000E+01 6.58718E-06 4.54747E+00 3.00000E-03
4.25000E+01 4.58470E-06 3.16609E+00 3.00000E-03
4.50000E+01 3.19129E-06 2.20459E+00 3.00000E-03
4.75000E+01 2.22160E-06 1.53529E+00 3.00000E-03
5.00000E+01 1.54671E-06 1.06933E+00 3.00000E-03
5.50000E+01 7.49942E-07 5.19011E-01 3.00000E-03
6.00000E+01 3.63761E-07 2.52135E-01 3.00000E-03
6.50000E+01 1.76511E-07 1.22665E-01 3.00000E-03
7.00000E+01 8.56819E-08 5.98304E-02 3.00000E-03
7.50000E+01 4.16071E-08 2.93242E-02 3.00000E-03
8.00000E+01 2.02117E-08 1.45081E-02 3.00000E-03
8.50000E+01 9.82176E-09 7.30969E-03 3.00000E-03
9.00000E+01 4.77448E-09 3.81113E-03 3.00000E-03
9.50000E+01 2.32172E-09 2.11017E-03 3.00000E-03
1.00000E+02 1.00000E-09 1.28292E-03 3.00000E-03
1.05000E+02 9.52381E-10 7.82920E-04 3.00000E-03
1.10000E+02 9.09091E-10 2.82920E-04 3.00000E-03
1.15000E+02 8.69565E-10 1.00000E-05 3.00000E-03
1.20000E+02 8.33333E-10 0.00000E+00 3.00000E-03
