# Atmospheric Model 54082105
# Col. #1          #2           #3            #4
# Alt [km]    rho [g/cm^3] thick [g/cm^2]    n-1
0.00000E+00 1.16186E-03 1.04880E+03 3.00000E-03
1.00000E+00 1.05583E-03 9.38002E+02 3.00000E-03
2.00000E+00 9.59476E-04 8.37314E+02 3.00000E-03
3.00000E+00 8.71916E-04 7.45814E+02 3.00000E-03
4.00000E+00 7.91095E-04 6.62680E+02 3.00000E-03
5.00000E+00 7.14345E-04 5.87473E+02 3.00000E-03
6.00000E+00 6.45048E-04 5.19563E+02 3.00000E-03
7.00000E+00 5.82478E-04 4.58240E+02 3.00000E-03
8.00000E+00 5.25982E-04 4.02865E+02 3.00000E-03
9.00000E+00 4.74971E-04 3.52860E+02 3.00000E-03
1.00000E+01 4.23083E-04 3.07825E+02 3.00000E-03
1.10000E+01 3.69037E-04 2.68280E+02 3.00000E-03
1.20000E+01 3.21897E-04 2.33787E+02 3.00000E-03
1.30000E+01 2.80781E-04 2.03700E+02 3.00000E-03
1.40000E+01 2.44919E-04 1.77456E+02 3.00000E-03
1.50000E+01 2.13639E-04 1.54564E+02 3.00000E-03
1.60000E+01 1.86355E-04 1.34595E+02 3.00000E-03
1.70000E+01 1.62557E-04 1.17177E+02 3.00000E-03
1.80000E+01 1.41800E-04 1.01983E+02 3.00000E-03
1.90000E+01 1.23694E-04 8.87285E+01 3.00000E-03
2.00000E+01 1.07900E-04 7.71668E+01 3.00000E-03
2.10000E+01 9.41242E-05 6.70812E+01 3.00000E-03
2.20000E+01 8.21076E-05 5.82833E+01 3.00000E-03
2.30000E+01 7.16258E-05 5.06086E+01 3.00000E-03
2.40000E+01 6.24826E-05 4.39136E+01 3.00000E-03
2.50000E+01 5.45069E-05 3.80732E+01 3.00000E-03
2.75000E+01 3.84473E-05 2.65430E+01 3.00000E-03
3.00000E+01 2.67635E-05 1.84797E+01 3.00000E-03
3.25000E+01 1.86312E-05 1.28666E+01 3.00000E-03
3.50000E+01 1.29707E-05 8.95896E+00 3.00000E-03
3.75000E+01 9.03048E-06 6.23848E+00 3.00000E-03
4.00000E+01 6.28754E-06 4.34438E+00 3.00000E-03
4.25000E+01 4.37797E-06 3.02557E+00 3.00000E-03
4.50000E+01 3.04852E-06 2.10726E+00 3.00000E-03
4.75000E+01 2.12289E-06 1.46780E+00 3.00000E-03
5.00000E+01 1.47839E-06 1.02249E+00 3.00000E-03
5.50000E+01 7.17098E-07 4.96381E-01 3.00000E-03
6.00000E+01 3.47903E-07 2.41165E-01 3.00000E-03
6.50000E+01 1.68821E-07 1.17335E-01 3.00000E-03
7.00000E+01 8.19376E-08 5.72409E-02 3.00000E-03
7.50000E+01 3.97764E-08 2.80715E-02 3.00000E-03
8.00000E+01 1.93132E-08 1.39101E-02 3.00000E-03
8.50000E+01 9.37927E-09 7.03345E-03 3.00000E-03
9.00000E+01 4.55582E-09 3.69361E-03 3.00000E-03
9.50000E+01 2.21334E-09 2.07120E-03 3.00000E-03
1.00000E+02 1.00000E-09 1.28292E-03 3.00000E-03
1.05000E+02 9.52381E-10 7.82920E-04 3.00000E-03
1.10000E+02 9.09091E-10 2.82920E-04 3.00000E-03
1.15000E+02 8.69565E-10 1.00000E-05 3.00000E-03
1.20000E+02 8.33333E-10 0.00000E+00 3.00000E-03
