# Atmospheric Model 51032107
# Col. #1          #2           #3            #4
# Alt [km]    rho [g/cm^3] thick [g/cm^2]    n-1
0.00000E+00 1.20949E-03 1.05741E+03 3.00000E-03
1.00000E+00 1.08288E-03 9.42912E+02 3.00000E-03
2.00000E+00 9.69520E-04 8.40397E+02 3.00000E-03
3.00000E+00 8.68034E-04 7.48613E+02 3.00000E-03
4.00000E+00 7.79047E-04 6.66415E+02 3.00000E-03
5.00000E+00 7.05133E-04 5.92267E+02 3.00000E-03
6.00000E+00 6.38232E-04 5.25155E+02 3.00000E-03
7.00000E+00 5.77679E-04 4.64410E+02 3.00000E-03
8.00000E+00 5.22872E-04 4.09427E+02 3.00000E-03
9.00000E+00 4.73266E-04 3.59662E+02 3.00000E-03
1.00000E+01 4.24319E-04 3.14675E+02 3.00000E-03
1.10000E+01 3.71224E-04 2.74957E+02 3.00000E-03
1.20000E+01 3.24773E-04 2.40209E+02 3.00000E-03
1.30000E+01 2.84135E-04 2.09808E+02 3.00000E-03
1.40000E+01 2.48582E-04 1.83212E+02 3.00000E-03
1.50000E+01 2.17478E-04 1.59944E+02 3.00000E-03
1.60000E+01 1.90266E-04 1.39587E+02 3.00000E-03
1.70000E+01 1.66459E-04 1.21777E+02 3.00000E-03
1.80000E+01 1.45631E-04 1.06196E+02 3.00000E-03
1.90000E+01 1.27409E-04 9.25643E+01 3.00000E-03
2.00000E+01 1.11467E-04 8.06383E+01 3.00000E-03
2.10000E+01 9.75205E-05 7.02044E+01 3.00000E-03
2.20000E+01 8.53187E-05 6.10760E+01 3.00000E-03
2.30000E+01 7.46438E-05 5.30898E+01 3.00000E-03
2.40000E+01 6.53045E-05 4.61028E+01 3.00000E-03
2.50000E+01 5.71338E-05 3.99900E+01 3.00000E-03
2.75000E+01 4.05104E-05 2.78647E+01 3.00000E-03
3.00000E+01 2.81604E-05 1.93743E+01 3.00000E-03
3.25000E+01 1.95770E-05 1.34720E+01 3.00000E-03
3.50000E+01 1.36110E-05 9.36864E+00 3.00000E-03
3.75000E+01 9.46379E-06 6.51565E+00 3.00000E-03
4.00000E+01 6.58076E-06 4.53187E+00 3.00000E-03
4.25000E+01 4.57637E-06 3.15237E+00 3.00000E-03
4.50000E+01 3.18273E-06 2.19301E+00 3.00000E-03
4.75000E+01 2.21367E-06 1.52578E+00 3.00000E-03
5.00000E+01 1.53979E-06 1.06168E+00 3.00000E-03
5.50000E+01 7.45169E-07 5.14279E-01 3.00000E-03
6.00000E+01 3.60730E-07 2.49331E-01 3.00000E-03
6.50000E+01 1.74680E-07 1.21055E-01 3.00000E-03
7.00000E+01 8.46123E-08 5.89302E-02 3.00000E-03
7.50000E+01 4.09972E-08 2.88340E-02 3.00000E-03
8.00000E+01 1.98702E-08 1.42496E-02 3.00000E-03
8.50000E+01 9.63338E-09 7.17998E-03 3.00000E-03
9.00000E+01 4.67176E-09 3.75210E-03 3.00000E-03
9.50000E+01 2.26624E-09 2.08953E-03 3.00000E-03
1.00000E+02 1.00000E-09 1.28292E-03 3.00000E-03
1.05000E+02 9.52381E-10 7.82920E-04 3.00000E-03
1.10000E+02 9.09091E-10 2.82920E-04 3.00000E-03
1.15000E+02 8.69565E-10 1.00000E-05 3.00000E-03
1.20000E+02 8.33333E-10 0.00000E+00 3.00000E-03
