# Atmospheric Model 5103202108
# Col. #1          #2           #3            #4
# Alt [km]    rho [g/cm^3] thick [g/cm^2]    n-1
0.00000E+00 1.21217E-03 1.05859E+03 3.00000E-03
1.00000E+00 1.08491E-03 9.43850E+02 3.00000E-03
2.00000E+00 9.71026E-04 8.41158E+02 3.00000E-03
3.00000E+00 8.69097E-04 7.49246E+02 3.00000E-03
4.00000E+00 7.79721E-04 6.66961E+02 3.00000E-03
5.00000E+00 7.05312E-04 5.92772E+02 3.00000E-03
6.00000E+00 6.38005E-04 5.25662E+02 3.00000E-03
7.00000E+00 5.77122E-04 4.64957E+02 3.00000E-03
8.00000E+00 5.22049E-04 4.10044E+02 3.00000E-03
9.00000E+00 4.72232E-04 3.60372E+02 3.00000E-03
1.00000E+01 4.23347E-04 3.15493E+02 3.00000E-03
1.10000E+01 3.70639E-04 2.75852E+02 3.00000E-03
1.20000E+01 3.24494E-04 2.41146E+02 3.00000E-03
1.30000E+01 2.84094E-04 2.10762E+02 3.00000E-03
1.40000E+01 2.48725E-04 1.84160E+02 3.00000E-03
1.50000E+01 2.17759E-04 1.60870E+02 3.00000E-03
1.60000E+01 1.90648E-04 1.40479E+02 3.00000E-03
1.70000E+01 1.66913E-04 1.22628E+02 3.00000E-03
1.80000E+01 1.46133E-04 1.06998E+02 3.00000E-03
1.90000E+01 1.27941E-04 9.33148E+01 3.00000E-03
2.00000E+01 1.12013E-04 8.13348E+01 3.00000E-03
2.10000E+01 9.80679E-05 7.08462E+01 3.00000E-03
2.20000E+01 8.58593E-05 6.16634E+01 3.00000E-03
2.30000E+01 7.51706E-05 5.36237E+01 3.00000E-03
2.40000E+01 6.58126E-05 4.65849E+01 3.00000E-03
2.50000E+01 5.76196E-05 4.04224E+01 3.00000E-03
2.75000E+01 4.09040E-05 2.81851E+01 3.00000E-03
3.00000E+01 2.84511E-05 1.96098E+01 3.00000E-03
3.25000E+01 1.97913E-05 1.36449E+01 3.00000E-03
3.50000E+01 1.37687E-05 9.49536E+00 3.00000E-03
3.75000E+01 9.57973E-06 6.60842E+00 3.00000E-03
4.00000E+01 6.66587E-06 4.59970E+00 3.00000E-03
4.25000E+01 4.63877E-06 3.20191E+00 3.00000E-03
4.50000E+01 3.22842E-06 2.22915E+00 3.00000E-03
4.75000E+01 2.24708E-06 1.55211E+00 3.00000E-03
5.00000E+01 1.56419E-06 1.08084E+00 3.00000E-03
5.50000E+01 7.58145E-07 5.24392E-01 3.00000E-03
6.00000E+01 3.67600E-07 2.54642E-01 3.00000E-03
6.50000E+01 1.78303E-07 1.23828E-01 3.00000E-03
7.00000E+01 8.65160E-08 6.03666E-02 3.00000E-03
7.50000E+01 4.19941E-08 2.95693E-02 3.00000E-03
8.00000E+01 2.03907E-08 1.46182E-02 3.00000E-03
8.50000E+01 9.90427E-09 7.35752E-03 3.00000E-03
9.00000E+01 4.81237E-09 3.83027E-03 3.00000E-03
9.50000E+01 2.33905E-09 2.11617E-03 3.00000E-03
1.00000E+02 1.00000E-09 1.28292E-03 3.00000E-03
1.05000E+02 9.52381E-10 7.82920E-04 3.00000E-03
1.10000E+02 9.09091E-10 2.82920E-04 3.00000E-03
1.15000E+02 8.69565E-10 1.00000E-05 3.00000E-03
1.20000E+02 8.33333E-10 0.00000E+00 3.00000E-03
