# Atmospheric Model 5103202103
# Col. #1          #2           #3            #4
# Alt [km]    rho [g/cm^3] thick [g/cm^2]    n-1
0.00000E+00 1.17634E-03 1.05751E+03 3.00000E-03
1.00000E+00 1.06460E-03 9.45551E+02 3.00000E-03
2.00000E+00 9.63493E-04 8.44231E+02 3.00000E-03
3.00000E+00 8.71989E-04 7.52533E+02 3.00000E-03
4.00000E+00 7.88278E-04 6.69554E+02 3.00000E-03
5.00000E+00 7.09945E-04 5.94711E+02 3.00000E-03
6.00000E+00 6.39398E-04 5.27305E+02 3.00000E-03
7.00000E+00 5.75862E-04 4.66598E+02 3.00000E-03
8.00000E+00 5.18640E-04 4.11923E+02 3.00000E-03
9.00000E+00 4.67105E-04 3.62680E+02 3.00000E-03
1.00000E+01 4.17862E-04 3.18370E+02 3.00000E-03
1.10000E+01 3.67107E-04 2.79176E+02 3.00000E-03
1.20000E+01 3.22516E-04 2.44743E+02 3.00000E-03
1.30000E+01 2.83342E-04 2.14492E+02 3.00000E-03
1.40000E+01 2.48926E-04 1.87916E+02 3.00000E-03
1.50000E+01 2.18690E-04 1.64568E+02 3.00000E-03
1.60000E+01 1.92127E-04 1.44056E+02 3.00000E-03
1.70000E+01 1.68791E-04 1.26035E+02 3.00000E-03
1.80000E+01 1.48289E-04 1.10203E+02 3.00000E-03
1.90000E+01 1.30278E-04 9.62942E+01 3.00000E-03
2.00000E+01 1.14454E-04 8.40747E+01 3.00000E-03
2.10000E+01 1.00553E-04 7.33393E+01 3.00000E-03
2.20000E+01 8.83395E-05 6.39079E+01 3.00000E-03
2.30000E+01 7.76098E-05 5.56220E+01 3.00000E-03
2.40000E+01 6.81834E-05 4.83425E+01 3.00000E-03
2.50000E+01 5.99020E-05 4.19472E+01 3.00000E-03
2.75000E+01 4.26203E-05 2.91915E+01 3.00000E-03
3.00000E+01 2.95802E-05 2.02656E+01 3.00000E-03
3.25000E+01 2.05318E-05 1.40703E+01 3.00000E-03
3.50000E+01 1.42526E-05 9.76991E+00 3.00000E-03
3.75000E+01 9.89477E-06 6.78456E+00 3.00000E-03
4.00000E+01 6.87000E-06 4.71193E+00 3.00000E-03
4.25000E+01 4.77033E-06 3.27282E+00 3.00000E-03
4.50000E+01 3.31270E-06 2.27349E+00 3.00000E-03
4.75000E+01 2.30067E-06 1.57950E+00 3.00000E-03
5.00000E+01 1.59797E-06 1.09749E+00 3.00000E-03
5.50000E+01 7.71106E-07 5.30128E-01 3.00000E-03
6.00000E+01 3.72235E-07 2.56299E-01 3.00000E-03
6.50000E+01 1.79753E-07 1.24093E-01 3.00000E-03
7.00000E+01 8.68332E-08 6.02407E-02 3.00000E-03
7.50000E+01 4.19611E-08 2.93909E-02 3.00000E-03
8.00000E+01 2.02841E-08 1.44808E-02 3.00000E-03
8.50000E+01 9.80869E-09 7.27222E-03 3.00000E-03
9.00000E+01 4.74471E-09 3.78587E-03 3.00000E-03
9.50000E+01 2.29588E-09 2.09919E-03 3.00000E-03
1.00000E+02 1.00000E-09 1.28292E-03 3.00000E-03
1.05000E+02 9.52381E-10 7.82920E-04 3.00000E-03
1.10000E+02 9.09091E-10 2.82920E-04 3.00000E-03
1.15000E+02 8.69565E-10 1.00000E-05 3.00000E-03
1.20000E+02 8.33333E-10 0.00000E+00 3.00000E-03
