# Atmospheric Model 54102103
# Col. #1          #2           #3            #4
# Alt [km]    rho [g/cm^3] thick [g/cm^2]    n-1
0.00000E+00 1.17288E-03 1.05546E+03 3.00000E-03
1.00000E+00 1.06499E-03 9.43648E+02 3.00000E-03
2.00000E+00 9.67047E-04 8.42125E+02 3.00000E-03
3.00000E+00 8.78118E-04 7.49939E+02 3.00000E-03
4.00000E+00 7.95592E-04 6.66250E+02 3.00000E-03
5.00000E+00 7.15705E-04 5.90756E+02 3.00000E-03
6.00000E+00 6.43843E-04 5.22842E+02 3.00000E-03
7.00000E+00 5.79200E-04 4.61747E+02 3.00000E-03
8.00000E+00 5.21050E-04 4.06786E+02 3.00000E-03
9.00000E+00 4.68741E-04 3.57342E+02 3.00000E-03
1.00000E+01 4.18099E-04 3.12922E+02 3.00000E-03
1.10000E+01 3.66325E-04 2.73757E+02 3.00000E-03
1.20000E+01 3.20964E-04 2.39443E+02 3.00000E-03
1.30000E+01 2.81222E-04 2.09377E+02 3.00000E-03
1.40000E+01 2.46401E-04 1.83035E+02 3.00000E-03
1.50000E+01 2.15893E-04 1.59953E+02 3.00000E-03
1.60000E+01 1.89163E-04 1.39730E+02 3.00000E-03
1.70000E+01 1.65743E-04 1.22011E+02 3.00000E-03
1.80000E+01 1.45223E-04 1.06485E+02 3.00000E-03
1.90000E+01 1.27244E-04 9.28814E+01 3.00000E-03
2.00000E+01 1.11492E-04 8.09620E+01 3.00000E-03
2.10000E+01 9.76898E-05 7.05181E+01 3.00000E-03
2.20000E+01 8.55968E-05 6.13671E+01 3.00000E-03
2.30000E+01 7.50011E-05 5.33488E+01 3.00000E-03
2.40000E+01 6.57172E-05 4.63231E+01 3.00000E-03
2.50000E+01 5.75828E-05 4.01671E+01 3.00000E-03
2.75000E+01 4.08639E-05 2.79315E+01 3.00000E-03
3.00000E+01 2.83396E-05 1.93765E+01 3.00000E-03
3.25000E+01 1.96559E-05 1.34431E+01 3.00000E-03
3.50000E+01 1.36344E-05 9.32767E+00 3.00000E-03
3.75000E+01 9.45856E-06 6.47282E+00 3.00000E-03
4.00000E+01 6.56233E-06 4.49223E+00 3.00000E-03
4.25000E+01 4.55340E-06 3.11804E+00 3.00000E-03
4.50000E+01 3.15978E-06 2.16448E+00 3.00000E-03
4.75000E+01 2.19291E-06 1.50274E+00 3.00000E-03
5.00000E+01 1.52205E-06 1.04347E+00 3.00000E-03
5.50000E+01 7.33454E-07 5.03388E-01 3.00000E-03
6.00000E+01 3.53578E-07 2.43086E-01 3.00000E-03
6.50000E+01 1.70515E-07 1.17581E-01 3.00000E-03
7.00000E+01 8.22628E-08 5.70453E-02 3.00000E-03
7.50000E+01 3.97013E-08 2.78359E-02 3.00000E-03
8.00000E+01 1.91674E-08 1.37367E-02 3.00000E-03
8.50000E+01 9.25718E-09 6.92861E-03 3.00000E-03
9.00000E+01 4.47245E-09 3.64007E-03 3.00000E-03
9.50000E+01 2.16153E-09 2.05102E-03 3.00000E-03
1.00000E+02 1.00000E-09 1.28292E-03 3.00000E-03
1.05000E+02 9.52381E-10 7.82920E-04 3.00000E-03
1.10000E+02 9.09091E-10 2.82920E-04 3.00000E-03
1.15000E+02 8.69565E-10 1.00000E-05 3.00000E-03
1.20000E+02 8.33333E-10 0.00000E+00 3.00000E-03
