# Atmospheric Model 5410202105
# Col. #1          #2           #3            #4
# Alt [km]    rho [g/cm^3] thick [g/cm^2]    n-1
0.00000E+00 1.20539E-03 1.05708E+03 3.00000E-03
1.00000E+00 1.08693E-03 9.42570E+02 3.00000E-03
2.00000E+00 9.80142E-04 8.39308E+02 3.00000E-03
3.00000E+00 8.83863E-04 7.46191E+02 3.00000E-03
4.00000E+00 7.96951E-04 6.62221E+02 3.00000E-03
5.00000E+00 7.18332E-04 5.86525E+02 3.00000E-03
6.00000E+00 6.47478E-04 5.18296E+02 3.00000E-03
7.00000E+00 5.83622E-04 4.56797E+02 3.00000E-03
8.00000E+00 5.26071E-04 4.01362E+02 3.00000E-03
9.00000E+00 4.74203E-04 3.51393E+02 3.00000E-03
1.00000E+01 4.21597E-04 3.06478E+02 3.00000E-03
1.10000E+01 3.67681E-04 2.67075E+02 3.00000E-03
1.20000E+01 3.20664E-04 2.32712E+02 3.00000E-03
1.30000E+01 2.79662E-04 2.02742E+02 3.00000E-03
1.40000E+01 2.43906E-04 1.76605E+02 3.00000E-03
1.50000E+01 2.12724E-04 1.53809E+02 3.00000E-03
1.60000E+01 1.85530E-04 1.33927E+02 3.00000E-03
1.70000E+01 1.61815E-04 1.16587E+02 3.00000E-03
1.80000E+01 1.41132E-04 1.01463E+02 3.00000E-03
1.90000E+01 1.23095E-04 8.82721E+01 3.00000E-03
2.00000E+01 1.07364E-04 7.67671E+01 3.00000E-03
2.10000E+01 9.36442E-05 6.67324E+01 3.00000E-03
2.20000E+01 8.16786E-05 5.79799E+01 3.00000E-03
2.30000E+01 7.12428E-05 5.03457E+01 3.00000E-03
2.40000E+01 6.21411E-05 4.36868E+01 3.00000E-03
2.50000E+01 5.42027E-05 3.78787E+01 3.00000E-03
2.75000E+01 3.82276E-05 2.64142E+01 3.00000E-03
3.00000E+01 2.66176E-05 1.83960E+01 3.00000E-03
3.25000E+01 1.85350E-05 1.28128E+01 3.00000E-03
3.50000E+01 1.29077E-05 8.92476E+00 3.00000E-03
3.75000E+01 8.98959E-06 6.21708E+00 3.00000E-03
4.00000E+01 6.26126E-06 4.33125E+00 3.00000E-03
4.25000E+01 4.36131E-06 3.01772E+00 3.00000E-03
4.50000E+01 3.03811E-06 2.10274E+00 3.00000E-03
4.75000E+01 2.11652E-06 1.46534E+00 3.00000E-03
5.00000E+01 1.47460E-06 1.02128E+00 3.00000E-03
5.50000E+01 7.15927E-07 4.96305E-01 3.00000E-03
6.00000E+01 3.47687E-07 2.41394E-01 3.00000E-03
6.50000E+01 1.68901E-07 1.17582E-01 3.00000E-03
7.00000E+01 8.20728E-08 5.74288E-02 3.00000E-03
7.50000E+01 3.98920E-08 2.81954E-02 3.00000E-03
8.00000E+01 1.93951E-08 1.39845E-02 3.00000E-03
8.50000E+01 9.43223E-09 7.07456E-03 3.00000E-03
9.00000E+01 4.58832E-09 3.71370E-03 3.00000E-03
9.50000E+01 2.23258E-09 2.07861E-03 3.00000E-03
1.00000E+02 1.00000E-09 1.28292E-03 3.00000E-03
1.05000E+02 9.52381E-10 7.82920E-04 3.00000E-03
1.10000E+02 9.09091E-10 2.82920E-04 3.00000E-03
1.15000E+02 8.69565E-10 1.00000E-05 3.00000E-03
1.20000E+02 8.33333E-10 0.00000E+00 3.00000E-03
