# Atmospheric Model 54102104
# Col. #1          #2           #3            #4
# Alt [km]    rho [g/cm^3] thick [g/cm^2]    n-1
0.00000E+00 1.17866E-03 1.05351E+03 3.00000E-03
1.00000E+00 1.06916E-03 9.41211E+02 3.00000E-03
2.00000E+00 9.69853E-04 8.39341E+02 3.00000E-03
3.00000E+00 8.79777E-04 7.46932E+02 3.00000E-03
4.00000E+00 7.96760E-04 6.63123E+02 3.00000E-03
5.00000E+00 7.17931E-04 5.87456E+02 3.00000E-03
6.00000E+00 6.46904E-04 5.19276E+02 3.00000E-03
7.00000E+00 5.82908E-04 4.57841E+02 3.00000E-03
8.00000E+00 5.25245E-04 4.02484E+02 3.00000E-03
9.00000E+00 4.73289E-04 3.52602E+02 3.00000E-03
1.00000E+01 4.21227E-04 3.07761E+02 3.00000E-03
1.10000E+01 3.67636E-04 2.68379E+02 3.00000E-03
1.20000E+01 3.20867E-04 2.34007E+02 3.00000E-03
1.30000E+01 2.80051E-04 2.04007E+02 3.00000E-03
1.40000E+01 2.44430E-04 1.77823E+02 3.00000E-03
1.50000E+01 2.13343E-04 1.54970E+02 3.00000E-03
1.60000E+01 1.86211E-04 1.35023E+02 3.00000E-03
1.70000E+01 1.62532E-04 1.17613E+02 3.00000E-03
1.80000E+01 1.41866E-04 1.02416E+02 3.00000E-03
1.90000E+01 1.23829E-04 8.91517E+01 3.00000E-03
2.00000E+01 1.08087E-04 7.75738E+01 3.00000E-03
2.10000E+01 9.43472E-05 6.74676E+01 3.00000E-03
2.20000E+01 8.23550E-05 5.86461E+01 3.00000E-03
2.30000E+01 7.18879E-05 5.09458E+01 3.00000E-03
2.40000E+01 6.27520E-05 4.42242E+01 3.00000E-03
2.50000E+01 5.47778E-05 3.83567E+01 3.00000E-03
2.75000E+01 3.86952E-05 2.67601E+01 3.00000E-03
3.00000E+01 2.69510E-05 1.86427E+01 3.00000E-03
3.25000E+01 1.87728E-05 1.29888E+01 3.00000E-03
3.50000E+01 1.30773E-05 9.05032E+00 3.00000E-03
3.75000E+01 9.11058E-06 6.30666E+00 3.00000E-03
4.00000E+01 6.34759E-06 4.39516E+00 3.00000E-03
4.25000E+01 4.42290E-06 3.06331E+00 3.00000E-03
4.50000E+01 3.08206E-06 2.13526E+00 3.00000E-03
4.75000E+01 2.14788E-06 1.48854E+00 3.00000E-03
5.00000E+01 1.49697E-06 1.03782E+00 3.00000E-03
5.50000E+01 7.27318E-07 5.04710E-01 3.00000E-03
6.00000E+01 3.53484E-07 2.45659E-01 3.00000E-03
6.50000E+01 1.71850E-07 1.19740E-01 3.00000E-03
7.00000E+01 8.35715E-08 5.85153E-02 3.00000E-03
7.50000E+01 4.06533E-08 2.87375E-02 3.00000E-03
8.00000E+01 1.97815E-08 1.42502E-02 3.00000E-03
8.50000E+01 9.62824E-09 7.19996E-03 3.00000E-03
9.00000E+01 4.68766E-09 3.76797E-03 3.00000E-03
9.50000E+01 2.28289E-09 2.09685E-03 3.00000E-03
1.00000E+02 1.00000E-09 1.28292E-03 3.00000E-03
1.05000E+02 9.52381E-10 7.82920E-04 3.00000E-03
1.10000E+02 9.09091E-10 2.82920E-04 3.00000E-03
1.15000E+02 8.69565E-10 1.00000E-05 3.00000E-03
1.20000E+02 8.33333E-10 0.00000E+00 3.00000E-03
