# Atmospheric Model 54102102
# Col. #1          #2           #3            #4
# Alt [km]    rho [g/cm^3] thick [g/cm^2]    n-1
0.00000E+00 1.16800E-03 1.05437E+03 3.00000E-03
1.00000E+00 1.06136E-03 9.42989E+02 3.00000E-03
2.00000E+00 9.64460E-04 8.41775E+02 3.00000E-03
3.00000E+00 8.76418E-04 7.49801E+02 3.00000E-03
4.00000E+00 7.94531E-04 6.66246E+02 3.00000E-03
5.00000E+00 7.14770E-04 5.90851E+02 3.00000E-03
6.00000E+00 6.43017E-04 5.23025E+02 3.00000E-03
7.00000E+00 5.78469E-04 4.62008E+02 3.00000E-03
8.00000E+00 5.20402E-04 4.07115E+02 3.00000E-03
9.00000E+00 4.68165E-04 3.57733E+02 3.00000E-03
1.00000E+01 4.17681E-04 3.13367E+02 3.00000E-03
1.10000E+01 3.66067E-04 2.74236E+02 3.00000E-03
1.20000E+01 3.20833E-04 2.39941E+02 3.00000E-03
1.30000E+01 2.81192E-04 2.09883E+02 3.00000E-03
1.40000E+01 2.46451E-04 1.83539E+02 3.00000E-03
1.50000E+01 2.16004E-04 1.60450E+02 3.00000E-03
1.60000E+01 1.89320E-04 1.40213E+02 3.00000E-03
1.70000E+01 1.65934E-04 1.22476E+02 3.00000E-03
1.80000E+01 1.45438E-04 1.06930E+02 3.00000E-03
1.90000E+01 1.27475E-04 9.33042E+01 3.00000E-03
2.00000E+01 1.11731E-04 8.13612E+01 3.00000E-03
2.10000E+01 9.79327E-05 7.08932E+01 3.00000E-03
2.20000E+01 8.58391E-05 6.17179E+01 3.00000E-03
2.30000E+01 7.52397E-05 5.36756E+01 3.00000E-03
2.40000E+01 6.59496E-05 4.66263E+01 3.00000E-03
2.50000E+01 5.78071E-05 4.04474E+01 3.00000E-03
2.75000E+01 4.10470E-05 2.81606E+01 3.00000E-03
3.00000E+01 2.85048E-05 1.95618E+01 3.00000E-03
3.25000E+01 1.97971E-05 1.35900E+01 3.00000E-03
3.50000E+01 1.37509E-05 9.44237E+00 3.00000E-03
3.75000E+01 9.55229E-06 6.56129E+00 3.00000E-03
4.00000E+01 6.63633E-06 4.55981E+00 3.00000E-03
4.25000E+01 4.61098E-06 3.16924E+00 3.00000E-03
4.50000E+01 3.20408E-06 2.20301E+00 3.00000E-03
4.75000E+01 2.22668E-06 1.53156E+00 3.00000E-03
5.00000E+01 1.54759E-06 1.06492E+00 3.00000E-03
5.50000E+01 7.47794E-07 5.15120E-01 3.00000E-03
6.00000E+01 3.61478E-07 2.49410E-01 3.00000E-03
6.50000E+01 1.74804E-07 1.20945E-01 3.00000E-03
7.00000E+01 8.45643E-08 5.88119E-02 3.00000E-03
7.50000E+01 4.09249E-08 2.87488E-02 3.00000E-03
8.00000E+01 1.98131E-08 1.41973E-02 3.00000E-03
8.50000E+01 9.59565E-09 7.15134E-03 3.00000E-03
9.00000E+01 4.64895E-09 3.73836E-03 3.00000E-03
9.50000E+01 2.25315E-09 2.08457E-03 3.00000E-03
1.00000E+02 1.00000E-09 1.28292E-03 3.00000E-03
1.05000E+02 9.52381E-10 7.82920E-04 3.00000E-03
1.10000E+02 9.09091E-10 2.82920E-04 3.00000E-03
1.15000E+02 8.69565E-10 1.00000E-05 3.00000E-03
1.20000E+02 8.33333E-10 0.00000E+00 3.00000E-03
