# Atmospheric Model 5410202106
# Col. #1          #2           #3            #4
# Alt [km]    rho [g/cm^3] thick [g/cm^2]    n-1
0.00000E+00 1.22256E-03 1.05802E+03 3.00000E-03
1.00000E+00 1.09933E-03 9.42033E+02 3.00000E-03
2.00000E+00 9.88553E-04 8.37737E+02 3.00000E-03
3.00000E+00 8.88964E-04 7.43950E+02 3.00000E-03
4.00000E+00 7.99811E-04 6.59604E+02 3.00000E-03
5.00000E+00 7.20615E-04 5.83652E+02 3.00000E-03
6.00000E+00 6.49278E-04 5.15219E+02 3.00000E-03
7.00000E+00 5.85019E-04 4.53560E+02 3.00000E-03
8.00000E+00 5.27134E-04 3.98003E+02 3.00000E-03
9.00000E+00 4.74989E-04 3.47942E+02 3.00000E-03
1.00000E+01 4.21325E-04 3.02992E+02 3.00000E-03
1.10000E+01 3.66815E-04 2.63648E+02 3.00000E-03
1.20000E+01 3.19361E-04 2.29394E+02 3.00000E-03
1.30000E+01 2.78049E-04 1.99571E+02 3.00000E-03
1.40000E+01 2.42084E-04 1.73606E+02 3.00000E-03
1.50000E+01 2.10773E-04 1.50999E+02 3.00000E-03
1.60000E+01 1.83514E-04 1.31316E+02 3.00000E-03
1.70000E+01 1.59782E-04 1.14179E+02 3.00000E-03
1.80000E+01 1.39120E-04 9.92575E+01 3.00000E-03
1.90000E+01 1.21132E-04 8.62657E+01 3.00000E-03
2.00000E+01 1.05470E-04 7.49537E+01 3.00000E-03
2.10000E+01 9.18349E-05 6.51041E+01 3.00000E-03
2.20000E+01 7.99631E-05 5.65279E+01 3.00000E-03
2.30000E+01 6.96268E-05 4.90604E+01 3.00000E-03
2.40000E+01 6.06272E-05 4.25580E+01 3.00000E-03
2.50000E+01 5.27915E-05 3.68961E+01 3.00000E-03
2.75000E+01 3.71540E-05 2.57485E+01 3.00000E-03
3.00000E+01 2.58994E-05 1.79512E+01 3.00000E-03
3.25000E+01 1.80549E-05 1.25158E+01 3.00000E-03
3.50000E+01 1.25869E-05 8.72662E+00 3.00000E-03
3.75000E+01 8.77530E-06 6.08494E+00 3.00000E-03
4.00000E+01 6.11823E-06 4.24318E+00 3.00000E-03
4.25000E+01 4.26589E-06 2.95905E+00 3.00000E-03
4.50000E+01 2.97449E-06 2.06369E+00 3.00000E-03
4.75000E+01 2.07413E-06 1.43936E+00 3.00000E-03
5.00000E+01 1.44637E-06 1.00400E+00 3.00000E-03
5.50000E+01 7.03432E-07 4.88685E-01 3.00000E-03
6.00000E+01 3.42171E-07 2.38043E-01 3.00000E-03
6.50000E+01 1.66472E-07 1.16113E-01 3.00000E-03
7.00000E+01 8.10058E-08 5.67880E-02 3.00000E-03
7.50000E+01 3.94246E-08 2.79179E-02 3.00000E-03
8.00000E+01 1.91908E-08 1.38660E-02 3.00000E-03
8.50000E+01 9.34316E-09 7.02546E-03 3.00000E-03
9.00000E+01 4.54956E-09 3.69483E-03 3.00000E-03
9.50000E+01 2.21574E-09 2.07290E-03 3.00000E-03
1.00000E+02 1.00000E-09 1.28292E-03 3.00000E-03
1.05000E+02 9.52381E-10 7.82920E-04 3.00000E-03
1.10000E+02 9.09091E-10 2.82920E-04 3.00000E-03
1.15000E+02 8.69565E-10 1.00000E-05 3.00000E-03
1.20000E+02 8.33333E-10 0.00000E+00 3.00000E-03
