# Atmospheric Model 56022104
# Col. #1          #2           #3            #4
# Alt [km]    rho [g/cm^3] thick [g/cm^2]    n-1
0.00000E+00 1.22026E-03 1.05050E+03 3.00000E-03
1.00000E+00 1.09540E-03 9.34829E+02 3.00000E-03
2.00000E+00 9.83327E-04 8.30993E+02 3.00000E-03
3.00000E+00 8.82724E-04 7.37781E+02 3.00000E-03
4.00000E+00 7.93882E-04 6.54086E+02 3.00000E-03
5.00000E+00 7.17736E-04 5.78569E+02 3.00000E-03
6.00000E+00 6.48902E-04 5.10295E+02 3.00000E-03
7.00000E+00 5.86677E-04 4.48568E+02 3.00000E-03
8.00000E+00 5.30427E-04 3.92761E+02 3.00000E-03
9.00000E+00 4.79575E-04 3.42303E+02 3.00000E-03
1.00000E+01 4.24342E-04 2.96930E+02 3.00000E-03
1.10000E+01 3.67855E-04 2.57387E+02 3.00000E-03
1.20000E+01 3.18890E-04 2.23108E+02 3.00000E-03
1.30000E+01 2.76445E-04 1.93392E+02 3.00000E-03
1.40000E+01 2.39651E-04 1.67631E+02 3.00000E-03
1.50000E+01 2.07756E-04 1.45298E+02 3.00000E-03
1.60000E+01 1.80108E-04 1.25938E+02 3.00000E-03
1.70000E+01 1.56140E-04 1.09154E+02 3.00000E-03
1.80000E+01 1.35362E-04 9.46039E+01 3.00000E-03
1.90000E+01 1.17350E-04 8.19897E+01 3.00000E-03
2.00000E+01 1.01736E-04 7.10539E+01 3.00000E-03
2.10000E+01 8.82002E-05 6.15732E+01 3.00000E-03
2.20000E+01 7.64658E-05 5.33539E+01 3.00000E-03
2.30000E+01 6.62931E-05 4.62280E+01 3.00000E-03
2.40000E+01 5.74741E-05 4.00502E+01 3.00000E-03
2.50000E+01 4.98288E-05 3.46941E+01 3.00000E-03
2.75000E+01 3.48383E-05 2.42188E+01 3.00000E-03
3.00000E+01 2.43129E-05 1.69037E+01 3.00000E-03
3.25000E+01 1.69680E-05 1.17985E+01 3.00000E-03
3.50000E+01 1.18425E-05 8.23550E+00 3.00000E-03
3.75000E+01 8.26549E-06 5.74876E+00 3.00000E-03
4.00000E+01 5.76915E-06 4.01309E+00 3.00000E-03
4.25000E+01 4.02690E-06 2.80161E+00 3.00000E-03
4.50000E+01 2.81090E-06 1.95598E+00 3.00000E-03
4.75000E+01 1.96217E-06 1.36569E+00 3.00000E-03
5.00000E+01 1.36975E-06 9.53627E-01 3.00000E-03
5.50000E+01 6.67578E-07 4.65149E-01 3.00000E-03
6.00000E+01 3.25406E-07 2.27064E-01 3.00000E-03
6.50000E+01 1.58639E-07 1.11003E-01 3.00000E-03
7.00000E+01 7.73498E-08 5.44189E-02 3.00000E-03
7.50000E+01 3.77198E-08 2.68276E-02 3.00000E-03
8.00000E+01 1.83967E-08 1.33719E-02 3.00000E-03
8.50000E+01 8.97376E-09 6.80876E-03 3.00000E-03
9.00000E+01 4.37793E-09 3.60715E-03 3.00000E-03
9.50000E+01 2.13611E-09 2.04512E-03 3.00000E-03
1.00000E+02 1.00000E-09 1.28292E-03 3.00000E-03
1.05000E+02 9.52381E-10 7.82920E-04 3.00000E-03
1.10000E+02 9.09091E-10 2.82920E-04 3.00000E-03
1.15000E+02 8.69565E-10 1.00000E-05 3.00000E-03
1.20000E+02 8.33333E-10 0.00000E+00 3.00000E-03
