# Atmospheric Model 5602202105
# Col. #1          #2           #3            #4
# Alt [km]    rho [g/cm^3] thick [g/cm^2]    n-1
0.00000E+00 1.22457E-03 1.05274E+03 3.00000E-03
1.00000E+00 1.10246E-03 9.36495E+02 3.00000E-03
2.00000E+00 9.92529E-04 8.31842E+02 3.00000E-03
3.00000E+00 8.93569E-04 7.37624E+02 3.00000E-03
4.00000E+00 8.04753E-04 6.52797E+02 3.00000E-03
5.00000E+00 7.25718E-04 5.76342E+02 3.00000E-03
6.00000E+00 6.54453E-04 5.07394E+02 3.00000E-03
7.00000E+00 5.90192E-04 4.45218E+02 3.00000E-03
8.00000E+00 5.32246E-04 3.89146E+02 3.00000E-03
9.00000E+00 4.79994E-04 3.38579E+02 3.00000E-03
1.00000E+01 4.22651E-04 2.93290E+02 3.00000E-03
1.10000E+01 3.65873E-04 2.53932E+02 3.00000E-03
1.20000E+01 3.16726E-04 2.19861E+02 3.00000E-03
1.30000E+01 2.74184E-04 1.90367E+02 3.00000E-03
1.40000E+01 2.37359E-04 1.64834E+02 3.00000E-03
1.50000E+01 2.05482E-04 1.42730E+02 3.00000E-03
1.60000E+01 1.77887E-04 1.23595E+02 3.00000E-03
1.70000E+01 1.54000E-04 1.07029E+02 3.00000E-03
1.80000E+01 1.33322E-04 9.26881E+01 3.00000E-03
1.90000E+01 1.15422E-04 8.02724E+01 3.00000E-03
2.00000E+01 9.99258E-05 6.95236E+01 3.00000E-03
2.10000E+01 8.65111E-05 6.02179E+01 3.00000E-03
2.20000E+01 7.48982E-05 5.21614E+01 3.00000E-03
2.30000E+01 6.48447E-05 4.51863E+01 3.00000E-03
2.40000E+01 5.61413E-05 3.91475E+01 3.00000E-03
2.50000E+01 4.86066E-05 3.39191E+01 3.00000E-03
2.75000E+01 3.39382E-05 2.37135E+01 3.00000E-03
3.00000E+01 2.37285E-05 1.65811E+01 3.00000E-03
3.25000E+01 1.65907E-05 1.15944E+01 3.00000E-03
3.50000E+01 1.16003E-05 8.10762E+00 3.00000E-03
3.75000E+01 8.11122E-06 5.66964E+00 3.00000E-03
4.00000E+01 5.67172E-06 3.96492E+00 3.00000E-03
4.25000E+01 3.96602E-06 2.77289E+00 3.00000E-03
4.50000E+01 2.77337E-06 1.93933E+00 3.00000E-03
4.75000E+01 1.93942E-06 1.35644E+00 3.00000E-03
5.00000E+01 1.35627E-06 9.48814E-01 3.00000E-03
5.50000E+01 6.63333E-07 4.64393E-01 3.00000E-03
6.00000E+01 3.24461E-07 2.27459E-01 3.00000E-03
6.50000E+01 1.58723E-07 1.11560E-01 3.00000E-03
7.00000E+01 7.76534E-08 5.48609E-02 3.00000E-03
7.50000E+01 3.79950E-08 2.71202E-02 3.00000E-03
8.00000E+01 1.85924E-08 1.35464E-02 3.00000E-03
8.50000E+01 9.09894E-09 6.90392E-03 3.00000E-03
9.00000E+01 4.45337E-09 3.65301E-03 3.00000E-03
9.50000E+01 2.17986E-09 2.06182E-03 3.00000E-03
1.00000E+02 1.00000E-09 1.28292E-03 3.00000E-03
1.05000E+02 9.52381E-10 7.82920E-04 3.00000E-03
1.10000E+02 9.09091E-10 2.82920E-04 3.00000E-03
1.15000E+02 8.69565E-10 1.00000E-05 3.00000E-03
1.20000E+02 8.33333E-10 0.00000E+00 3.00000E-03
