# Atmospheric Model 5602202101
# Col. #1          #2           #3            #4
# Alt [km]    rho [g/cm^3] thick [g/cm^2]    n-1
0.00000E+00 1.19918E-03 1.05060E+03 3.00000E-03
1.00000E+00 1.07949E-03 9.36776E+02 3.00000E-03
2.00000E+00 9.71800E-04 8.34306E+02 3.00000E-03
3.00000E+00 8.74892E-04 7.42057E+02 3.00000E-03
4.00000E+00 7.88612E-04 6.58992E+02 3.00000E-03
5.00000E+00 7.13133E-04 5.83968E+02 3.00000E-03
6.00000E+00 6.44883E-04 5.16124E+02 3.00000E-03
7.00000E+00 5.83171E-04 4.54773E+02 3.00000E-03
8.00000E+00 5.27368E-04 3.99293E+02 3.00000E-03
9.00000E+00 4.76910E-04 3.49122E+02 3.00000E-03
1.00000E+01 4.24365E-04 3.03903E+02 3.00000E-03
1.10000E+01 3.69220E-04 2.64287E+02 3.00000E-03
1.20000E+01 3.21245E-04 2.29820E+02 3.00000E-03
1.30000E+01 2.79506E-04 1.99831E+02 3.00000E-03
1.40000E+01 2.43194E-04 1.73738E+02 3.00000E-03
1.50000E+01 2.11601E-04 1.51035E+02 3.00000E-03
1.60000E+01 1.84115E-04 1.31281E+02 3.00000E-03
1.70000E+01 1.60200E-04 1.14093E+02 3.00000E-03
1.80000E+01 1.39394E-04 9.91370E+01 3.00000E-03
1.90000E+01 1.21291E-04 8.61237E+01 3.00000E-03
2.00000E+01 1.05541E-04 7.48004E+01 3.00000E-03
2.10000E+01 9.18365E-05 6.49474E+01 3.00000E-03
2.20000E+01 7.99126E-05 5.63738E+01 3.00000E-03
2.30000E+01 6.95377E-05 4.89133E+01 3.00000E-03
2.40000E+01 6.05105E-05 4.24214E+01 3.00000E-03
2.50000E+01 5.26557E-05 3.67722E+01 3.00000E-03
2.75000E+01 3.70254E-05 2.56601E+01 3.00000E-03
3.00000E+01 2.58096E-05 1.78899E+01 3.00000E-03
3.25000E+01 1.79923E-05 1.24734E+01 3.00000E-03
3.50000E+01 1.25434E-05 8.69730E+00 3.00000E-03
3.75000E+01 8.74511E-06 6.06473E+00 3.00000E-03
4.00000E+01 6.09734E-06 4.22928E+00 3.00000E-03
4.25000E+01 4.25146E-06 2.94953E+00 3.00000E-03
4.50000E+01 2.96455E-06 2.05717E+00 3.00000E-03
4.75000E+01 2.06730E-06 1.43492E+00 3.00000E-03
5.00000E+01 1.44169E-06 1.00099E+00 3.00000E-03
5.50000E+01 7.01251E-07 4.87305E-01 3.00000E-03
6.00000E+01 3.41168E-07 2.37422E-01 3.00000E-03
6.50000E+01 1.66017E-07 1.15839E-01 3.00000E-03
7.00000E+01 8.08032E-08 5.66699E-02 3.00000E-03
7.50000E+01 3.93363E-08 2.78687E-02 3.00000E-03
8.00000E+01 1.91535E-08 1.38465E-02 3.00000E-03
8.50000E+01 9.32804E-09 7.01826E-03 3.00000E-03
9.00000E+01 4.54382E-09 3.69251E-03 3.00000E-03
9.50000E+01 2.21380E-09 2.07235E-03 3.00000E-03
1.00000E+02 1.00000E-09 1.28292E-03 3.00000E-03
1.05000E+02 9.52381E-10 7.82920E-04 3.00000E-03
1.10000E+02 9.09091E-10 2.82920E-04 3.00000E-03
1.15000E+02 8.69565E-10 1.00000E-05 3.00000E-03
1.20000E+02 8.33333E-10 0.00000E+00 3.00000E-03
