# Atmospheric Model 5602202106
# Col. #1          #2           #3            #4
# Alt [km]    rho [g/cm^3] thick [g/cm^2]    n-1
0.00000E+00 1.23206E-03 1.05290E+03 3.00000E-03
1.00000E+00 1.10830E-03 9.35989E+02 3.00000E-03
2.00000E+00 9.96980E-04 8.30823E+02 3.00000E-03
3.00000E+00 8.96848E-04 7.36220E+02 3.00000E-03
4.00000E+00 8.07090E-04 6.51115E+02 3.00000E-03
5.00000E+00 7.27412E-04 5.74459E+02 3.00000E-03
6.00000E+00 6.55609E-04 5.05371E+02 3.00000E-03
7.00000E+00 5.90902E-04 4.43101E+02 3.00000E-03
8.00000E+00 5.32588E-04 3.86977E+02 3.00000E-03
9.00000E+00 4.80035E-04 3.36392E+02 3.00000E-03
1.00000E+01 4.21842E-04 2.91153E+02 3.00000E-03
1.10000E+01 3.64869E-04 2.51886E+02 3.00000E-03
1.20000E+01 3.15595E-04 2.17922E+02 3.00000E-03
1.30000E+01 2.72979E-04 1.88545E+02 3.00000E-03
1.40000E+01 2.36122E-04 1.63135E+02 3.00000E-03
1.50000E+01 2.04244E-04 1.41155E+02 3.00000E-03
1.60000E+01 1.76672E-04 1.22143E+02 3.00000E-03
1.70000E+01 1.52825E-04 1.05697E+02 3.00000E-03
1.80000E+01 1.32199E-04 9.14703E+01 3.00000E-03
1.90000E+01 1.14358E-04 7.91640E+01 3.00000E-03
2.00000E+01 9.89262E-05 6.85185E+01 3.00000E-03
2.10000E+01 8.55782E-05 5.93094E+01 3.00000E-03
2.20000E+01 7.40324E-05 5.13428E+01 3.00000E-03
2.30000E+01 6.40453E-05 4.44510E+01 3.00000E-03
2.40000E+01 5.54062E-05 3.84888E+01 3.00000E-03
2.50000E+01 4.79332E-05 3.33309E+01 3.00000E-03
2.75000E+01 3.34097E-05 2.32757E+01 3.00000E-03
3.00000E+01 2.33340E-05 1.62580E+01 3.00000E-03
3.25000E+01 1.62975E-05 1.13565E+01 3.00000E-03
3.50000E+01 1.13833E-05 7.93310E+00 3.00000E-03
3.75000E+01 7.95116E-06 5.54190E+00 3.00000E-03
4.00000E+01 5.55401E-06 3.87164E+00 3.00000E-03
4.25000E+01 3.87970E-06 2.70492E+00 3.00000E-03
4.50000E+01 2.71021E-06 1.88990E+00 3.00000E-03
4.75000E+01 1.89332E-06 1.32055E+00 3.00000E-03
5.00000E+01 1.32269E-06 9.22810E-01 3.00000E-03
5.50000E+01 6.45611E-07 4.50802E-01 3.00000E-03
6.00000E+01 3.15168E-07 2.20400E-01 3.00000E-03
6.50000E+01 1.53876E-07 1.07918E-01 3.00000E-03
7.00000E+01 7.51372E-08 5.29969E-02 3.00000E-03
7.50000E+01 3.66941E-08 2.61777E-02 3.00000E-03
8.00000E+01 1.79223E-08 1.30794E-02 3.00000E-03
8.50000E+01 8.75484E-09 6.68157E-03 3.00000E-03
9.00000E+01 4.27718E-09 3.55612E-03 3.00000E-03
9.50000E+01 2.08988E-09 2.02909E-03 3.00000E-03
1.00000E+02 1.00000E-09 1.28292E-03 3.00000E-03
1.05000E+02 9.52381E-10 7.82920E-04 3.00000E-03
1.10000E+02 9.09091E-10 2.82920E-04 3.00000E-03
1.15000E+02 8.69565E-10 1.00000E-05 3.00000E-03
1.20000E+02 8.33333E-10 0.00000E+00 3.00000E-03
