# Atmospheric Model 5602202103
# Col. #1          #2           #3            #4
# Alt [km]    rho [g/cm^3] thick [g/cm^2]    n-1
0.00000E+00 1.21656E-03 1.05059E+03 3.00000E-03
1.00000E+00 1.09149E-03 9.35298E+02 3.00000E-03
2.00000E+00 9.79286E-04 8.31861E+02 3.00000E-03
3.00000E+00 8.78626E-04 7.39057E+02 3.00000E-03
4.00000E+00 7.89894E-04 6.55771E+02 3.00000E-03
5.00000E+00 7.14447E-04 5.80617E+02 3.00000E-03
6.00000E+00 6.46215E-04 5.12641E+02 3.00000E-03
7.00000E+00 5.84507E-04 4.51157E+02 3.00000E-03
8.00000E+00 5.28699E-04 3.95543E+02 3.00000E-03
9.00000E+00 4.78226E-04 3.45239E+02 3.00000E-03
1.00000E+01 4.24418E-04 2.99940E+02 3.00000E-03
1.10000E+01 3.68492E-04 2.60360E+02 3.00000E-03
1.20000E+01 3.19938E-04 2.25996E+02 3.00000E-03
1.30000E+01 2.77784E-04 1.96159E+02 3.00000E-03
1.40000E+01 2.41187E-04 1.70254E+02 3.00000E-03
1.50000E+01 2.09412E-04 1.47761E+02 3.00000E-03
1.60000E+01 1.81825E-04 1.28232E+02 3.00000E-03
1.70000E+01 1.57874E-04 1.11275E+02 3.00000E-03
1.80000E+01 1.37079E-04 9.65521E+01 3.00000E-03
1.90000E+01 1.19024E-04 8.37683E+01 3.00000E-03
2.00000E+01 1.03347E-04 7.26682E+01 3.00000E-03
2.10000E+01 8.97367E-05 6.30300E+01 3.00000E-03
2.20000E+01 7.79191E-05 5.46611E+01 3.00000E-03
2.30000E+01 6.76584E-05 4.73943E+01 3.00000E-03
2.40000E+01 5.87493E-05 4.10844E+01 3.00000E-03
2.50000E+01 5.10138E-05 3.56053E+01 3.00000E-03
2.75000E+01 3.57633E-05 2.48629E+01 3.00000E-03
3.00000E+01 2.49586E-05 1.73535E+01 3.00000E-03
3.25000E+01 1.74189E-05 1.21127E+01 3.00000E-03
3.50000E+01 1.21574E-05 8.45502E+00 3.00000E-03
3.75000E+01 8.48544E-06 5.90212E+00 3.00000E-03
4.00000E+01 5.92279E-06 4.12026E+00 3.00000E-03
4.25000E+01 4.13423E-06 2.87650E+00 3.00000E-03
4.50000E+01 2.88590E-06 2.00831E+00 3.00000E-03
4.75000E+01 2.01457E-06 1.40227E+00 3.00000E-03
5.00000E+01 1.40638E-06 9.79194E-01 3.00000E-03
5.50000E+01 6.85476E-07 4.77640E-01 3.00000E-03
6.00000E+01 3.34155E-07 2.33164E-01 3.00000E-03
6.50000E+01 1.62919E-07 1.13978E-01 3.00000E-03
7.00000E+01 7.94438E-08 5.58653E-02 3.00000E-03
7.50000E+01 3.87450E-08 2.75258E-02 3.00000E-03
8.00000E+01 1.88989E-08 1.37036E-02 3.00000E-03
8.50000E+01 9.21980E-09 6.96102E-03 3.00000E-03
9.00000E+01 4.49855E-09 3.67144E-03 3.00000E-03
9.50000E+01 2.19527E-09 2.06628E-03 3.00000E-03
1.00000E+02 1.00000E-09 1.28292E-03 3.00000E-03
1.05000E+02 9.52381E-10 7.82920E-04 3.00000E-03
1.10000E+02 9.09091E-10 2.82920E-04 3.00000E-03
1.15000E+02 8.69565E-10 1.00000E-05 3.00000E-03
1.20000E+02 8.33333E-10 0.00000E+00 3.00000E-03
