# Atmospheric Model 7201202101
# Col. #1          #2           #3            #4
# Alt [km]    rho [g/cm^3] thick [g/cm^2]    n-1
0.00000E+00 1.25426E-03 1.00561E+03 3.00000E-03
1.00000E+00 1.12374E-03 8.86828E+02 3.00000E-03
2.00000E+00 1.00682E-03 7.80407E+02 3.00000E-03
3.00000E+00 9.02074E-04 6.85058E+02 3.00000E-03
4.00000E+00 8.06916E-04 5.99682E+02 3.00000E-03
5.00000E+00 7.21513E-04 5.23341E+02 3.00000E-03
6.00000E+00 6.45154E-04 4.55078E+02 3.00000E-03
7.00000E+00 5.76881E-04 3.94040E+02 3.00000E-03
8.00000E+00 5.15838E-04 3.39461E+02 3.00000E-03
9.00000E+00 4.55016E-04 2.90764E+02 3.00000E-03
1.00000E+01 3.88604E-04 2.48670E+02 3.00000E-03
1.10000E+01 3.31891E-04 2.12720E+02 3.00000E-03
1.20000E+01 2.83460E-04 1.82016E+02 3.00000E-03
1.30000E+01 2.42100E-04 1.55793E+02 3.00000E-03
1.40000E+01 2.06779E-04 1.33395E+02 3.00000E-03
1.50000E+01 1.76613E-04 1.14265E+02 3.00000E-03
1.60000E+01 1.50851E-04 9.79258E+01 3.00000E-03
1.70000E+01 1.28850E-04 8.39697E+01 3.00000E-03
1.80000E+01 1.10059E-04 7.20490E+01 3.00000E-03
1.90000E+01 9.40095E-05 6.18667E+01 3.00000E-03
2.00000E+01 8.03022E-05 5.31691E+01 3.00000E-03
2.10000E+01 6.85947E-05 4.57396E+01 3.00000E-03
2.20000E+01 5.85951E-05 3.93933E+01 3.00000E-03
2.30000E+01 5.00541E-05 3.39720E+01 3.00000E-03
2.40000E+01 4.27588E-05 2.93409E+01 3.00000E-03
2.50000E+01 3.65274E-05 2.53848E+01 3.00000E-03
2.75000E+01 2.49371E-05 1.78257E+01 3.00000E-03
3.00000E+01 1.75770E-05 1.25650E+01 3.00000E-03
3.25000E+01 1.23893E-05 8.85689E+00 3.00000E-03
3.50000E+01 8.73279E-06 6.24322E+00 3.00000E-03
3.75000E+01 6.15548E-06 4.40092E+00 3.00000E-03
4.00000E+01 4.33885E-06 3.10234E+00 3.00000E-03
4.25000E+01 3.05837E-06 2.18700E+00 3.00000E-03
4.50000E+01 2.15580E-06 1.54179E+00 3.00000E-03
4.75000E+01 1.51961E-06 1.08699E+00 3.00000E-03
5.00000E+01 1.07117E-06 7.66406E-01 3.00000E-03
5.50000E+01 5.32255E-07 3.81129E-01 3.00000E-03
6.00000E+01 2.64481E-07 1.89686E-01 3.00000E-03
6.50000E+01 1.31427E-07 9.45548E-02 3.00000E-03
7.00000E+01 6.53111E-08 4.72813E-02 3.00000E-03
7.50000E+01 3.24567E-08 2.37889E-02 3.00000E-03
8.00000E+01 1.61300E-08 1.21142E-02 3.00000E-03
8.50000E+01 8.01639E-09 6.31204E-03 3.00000E-03
9.00000E+01 3.98416E-09 3.42843E-03 3.00000E-03
9.50000E+01 1.98020E-09 1.99525E-03 3.00000E-03
1.00000E+02 1.00000E-09 1.28292E-03 3.00000E-03
1.05000E+02 9.52381E-10 7.82920E-04 3.00000E-03
1.10000E+02 9.09091E-10 2.82920E-04 3.00000E-03
1.15000E+02 8.69565E-10 1.00000E-05 3.00000E-03
1.20000E+02 8.33333E-10 0.00000E+00 3.00000E-03
