# Atmospheric Model 72012102
# Col. #1          #2           #3            #4
# Alt [km]    rho [g/cm^3] thick [g/cm^2]    n-1
0.00000E+00 1.25514E-03 1.01143E+03 3.00000E-03
1.00000E+00 1.12309E-03 8.92641E+02 3.00000E-03
2.00000E+00 1.00495E-03 7.86349E+02 3.00000E-03
3.00000E+00 8.99254E-04 6.91237E+02 3.00000E-03
4.00000E+00 8.02598E-04 6.06224E+02 3.00000E-03
5.00000E+00 7.16274E-04 5.30363E+02 3.00000E-03
6.00000E+00 6.39250E-04 4.62659E+02 3.00000E-03
7.00000E+00 5.70522E-04 4.02236E+02 3.00000E-03
8.00000E+00 5.09194E-04 3.48309E+02 3.00000E-03
9.00000E+00 4.50842E-04 3.00243E+02 3.00000E-03
1.00000E+01 3.87931E-04 2.58367E+02 3.00000E-03
1.10000E+01 3.33513E-04 2.22364E+02 3.00000E-03
1.20000E+01 2.86737E-04 1.91410E+02 3.00000E-03
1.30000E+01 2.46529E-04 1.64798E+02 3.00000E-03
1.40000E+01 2.11966E-04 1.41916E+02 3.00000E-03
1.50000E+01 1.82254E-04 1.22243E+02 3.00000E-03
1.60000E+01 1.56712E-04 1.05327E+02 3.00000E-03
1.70000E+01 1.34753E-04 9.07812E+01 3.00000E-03
1.80000E+01 1.15875E-04 7.82736E+01 3.00000E-03
1.90000E+01 9.96446E-05 6.75180E+01 3.00000E-03
2.00000E+01 8.56903E-05 5.82689E+01 3.00000E-03
2.10000E+01 7.36924E-05 5.03148E+01 3.00000E-03
2.20000E+01 6.33763E-05 4.34744E+01 3.00000E-03
2.30000E+01 5.45061E-05 3.75914E+01 3.00000E-03
2.40000E+01 4.68788E-05 3.25318E+01 3.00000E-03
2.50000E+01 4.03201E-05 2.81801E+01 3.00000E-03
2.75000E+01 2.78780E-05 1.97722E+01 3.00000E-03
3.00000E+01 1.95957E-05 1.38987E+01 3.00000E-03
3.25000E+01 1.37741E-05 9.77013E+00 3.00000E-03
3.50000E+01 9.68219E-06 6.86809E+00 3.00000E-03
3.75000E+01 6.80594E-06 4.82815E+00 3.00000E-03
4.00000E+01 4.78419E-06 3.39420E+00 3.00000E-03
4.25000E+01 3.36306E-06 2.38621E+00 3.00000E-03
4.50000E+01 2.36410E-06 1.67764E+00 3.00000E-03
4.75000E+01 1.66189E-06 1.17954E+00 3.00000E-03
5.00000E+01 1.16827E-06 8.29382E-01 3.00000E-03
5.50000E+01 5.77355E-07 4.10190E-01 3.00000E-03
6.00000E+01 2.85341E-07 2.03021E-01 3.00000E-03
6.50000E+01 1.41028E-07 1.00633E-01 3.00000E-03
7.00000E+01 6.97057E-08 5.00264E-02 3.00000E-03
7.50000E+01 3.44549E-08 2.50128E-02 3.00000E-03
8.00000E+01 1.70316E-08 1.26485E-02 3.00000E-03
8.50000E+01 8.41938E-09 6.53658E-03 3.00000E-03
9.00000E+01 4.16222E-09 3.51513E-03 3.00000E-03
9.50000E+01 2.05774E-09 2.02141E-03 3.00000E-03
1.00000E+02 1.00000E-09 1.28292E-03 3.00000E-03
1.05000E+02 9.52381E-10 7.82920E-04 3.00000E-03
1.10000E+02 9.09091E-10 2.82920E-04 3.00000E-03
1.15000E+02 8.69565E-10 1.00000E-05 3.00000E-03
1.20000E+02 8.33333E-10 0.00000E+00 3.00000E-03
