# Atmospheric Model 72012107
# Col. #1          #2           #3            #4
# Alt [km]    rho [g/cm^3] thick [g/cm^2]    n-1
0.00000E+00 1.30000E-03 1.02428E+03 3.00000E-03
1.00000E+00 1.15612E-03 9.01618E+02 3.00000E-03
2.00000E+00 1.02823E-03 7.92526E+02 3.00000E-03
3.00000E+00 9.14544E-04 6.95499E+02 3.00000E-03
4.00000E+00 8.17349E-04 6.09053E+02 3.00000E-03
5.00000E+00 7.31938E-04 5.31668E+02 3.00000E-03
6.00000E+00 6.55461E-04 4.62368E+02 3.00000E-03
7.00000E+00 5.86982E-04 4.00309E+02 3.00000E-03
8.00000E+00 5.25663E-04 3.44733E+02 3.00000E-03
9.00000E+00 4.60633E-04 2.95224E+02 3.00000E-03
1.00000E+01 3.93360E-04 2.52613E+02 3.00000E-03
1.10000E+01 3.35917E-04 2.16224E+02 3.00000E-03
1.20000E+01 2.86867E-04 1.85150E+02 3.00000E-03
1.30000E+01 2.44983E-04 1.58612E+02 3.00000E-03
1.40000E+01 2.09218E-04 1.35949E+02 3.00000E-03
1.50000E+01 1.78677E-04 1.16595E+02 3.00000E-03
1.60000E+01 1.52597E-04 1.00065E+02 3.00000E-03
1.70000E+01 1.30325E-04 8.59485E+01 3.00000E-03
1.80000E+01 1.11306E-04 7.38919E+01 3.00000E-03
1.90000E+01 9.50644E-05 6.35948E+01 3.00000E-03
2.00000E+01 8.11938E-05 5.48001E+01 3.00000E-03
2.10000E+01 6.93482E-05 4.72886E+01 3.00000E-03
2.20000E+01 5.92317E-05 4.08729E+01 3.00000E-03
2.30000E+01 5.05918E-05 3.53930E+01 3.00000E-03
2.40000E+01 4.32132E-05 3.07125E+01 3.00000E-03
2.50000E+01 3.72720E-05 2.67032E+01 3.00000E-03
2.75000E+01 2.62922E-05 1.88373E+01 3.00000E-03
3.00000E+01 1.85470E-05 1.32886E+01 3.00000E-03
3.25000E+01 1.30835E-05 9.37444E+00 3.00000E-03
3.50000E+01 9.22946E-06 6.61328E+00 3.00000E-03
3.75000E+01 6.51077E-06 4.66548E+00 3.00000E-03
4.00000E+01 4.59295E-06 3.29143E+00 3.00000E-03
4.25000E+01 3.24007E-06 2.32212E+00 3.00000E-03
4.50000E+01 2.28570E-06 1.63832E+00 3.00000E-03
4.75000E+01 1.61245E-06 1.15593E+00 3.00000E-03
5.00000E+01 1.13752E-06 8.15633E-01 3.00000E-03
5.50000E+01 5.66123E-07 4.06204E-01 3.00000E-03
6.00000E+01 2.81757E-07 2.02435E-01 3.00000E-03
6.50000E+01 1.40233E-07 1.01020E-01 3.00000E-03
7.00000E+01 6.97969E-08 5.05438E-02 3.00000E-03
7.50000E+01 3.47404E-08 2.54204E-02 3.00000E-03
8.00000E+01 1.72919E-08 1.29155E-02 3.00000E-03
8.50000E+01 8.60725E-09 6.69117E-03 3.00000E-03
9.00000E+01 4.28446E-09 3.59290E-03 3.00000E-03
9.50000E+01 2.13274E-09 2.05064E-03 3.00000E-03
1.00000E+02 1.00000E-09 1.28292E-03 3.00000E-03
1.05000E+02 9.52381E-10 7.82920E-04 3.00000E-03
1.10000E+02 9.09091E-10 2.82920E-04 3.00000E-03
1.15000E+02 8.69565E-10 1.00000E-05 3.00000E-03
1.20000E+02 8.33333E-10 0.00000E+00 3.00000E-03
