# Atmospheric Model 72012109
# Col. #1          #2           #3            #4
# Alt [km]    rho [g/cm^3] thick [g/cm^2]    n-1
0.00000E+00 1.26839E-03 1.01986E+03 3.00000E-03
1.00000E+00 1.13512E-03 8.99813E+02 3.00000E-03
2.00000E+00 1.01589E-03 7.92373E+02 3.00000E-03
3.00000E+00 9.09168E-04 6.96217E+02 3.00000E-03
4.00000E+00 8.12401E-04 6.10229E+02 3.00000E-03
5.00000E+00 7.26006E-04 5.33390E+02 3.00000E-03
6.00000E+00 6.48805E-04 4.64722E+02 3.00000E-03
7.00000E+00 5.79819E-04 4.03355E+02 3.00000E-03
8.00000E+00 5.18173E-04 3.48513E+02 3.00000E-03
9.00000E+00 4.54916E-04 2.99714E+02 3.00000E-03
1.00000E+01 3.90333E-04 2.57534E+02 3.00000E-03
1.10000E+01 3.34925E-04 2.21342E+02 3.00000E-03
1.20000E+01 2.87389E-04 1.90287E+02 3.00000E-03
1.30000E+01 2.46606E-04 1.63639E+02 3.00000E-03
1.40000E+01 2.11614E-04 1.40772E+02 3.00000E-03
1.50000E+01 1.81592E-04 1.21150E+02 3.00000E-03
1.60000E+01 1.55832E-04 1.04312E+02 3.00000E-03
1.70000E+01 1.33730E-04 8.98623E+01 3.00000E-03
1.80000E+01 1.14764E-04 7.74617E+01 3.00000E-03
1.90000E+01 9.84910E-05 6.68197E+01 3.00000E-03
2.00000E+01 8.45270E-05 5.76866E+01 3.00000E-03
2.10000E+01 7.25444E-05 4.98483E+01 3.00000E-03
2.20000E+01 6.22618E-05 4.31211E+01 3.00000E-03
2.30000E+01 5.34378E-05 3.73474E+01 3.00000E-03
2.40000E+01 4.58654E-05 3.23919E+01 3.00000E-03
2.50000E+01 3.95812E-05 2.81330E+01 3.00000E-03
2.75000E+01 2.78417E-05 1.97910E+01 3.00000E-03
3.00000E+01 1.95848E-05 1.39231E+01 3.00000E-03
3.25000E+01 1.37770E-05 9.79538E+00 3.00000E-03
3.50000E+01 9.69185E-06 6.89165E+00 3.00000E-03
3.75000E+01 6.81824E-06 4.84891E+00 3.00000E-03
4.00000E+01 4.79681E-06 3.41181E+00 3.00000E-03
4.25000E+01 3.37480E-06 2.40076E+00 3.00000E-03
4.50000E+01 2.37441E-06 1.68942E+00 3.00000E-03
4.75000E+01 1.67063E-06 1.18894E+00 3.00000E-03
5.00000E+01 1.17548E-06 8.36791E-01 3.00000E-03
5.50000E+01 5.82013E-07 4.14663E-01 3.00000E-03
6.00000E+01 2.88206E-07 2.05644E-01 3.00000E-03
6.50000E+01 1.42735E-07 1.02134E-01 3.00000E-03
7.00000E+01 7.06983E-08 5.08682E-02 3.00000E-03
7.50000E+01 3.50221E-08 2.54740E-02 3.00000E-03
8.00000E+01 1.73511E-08 1.28938E-02 3.00000E-03
8.50000E+01 8.59735E-09 6.66075E-03 3.00000E-03
9.00000E+01 4.26042E-09 3.57217E-03 3.00000E-03
9.50000E+01 2.11150E-09 2.04155E-03 3.00000E-03
1.00000E+02 1.00000E-09 1.28292E-03 3.00000E-03
1.05000E+02 9.52381E-10 7.82920E-04 3.00000E-03
1.10000E+02 9.09091E-10 2.82920E-04 3.00000E-03
1.15000E+02 8.69565E-10 1.00000E-05 3.00000E-03
1.20000E+02 8.33333E-10 0.00000E+00 3.00000E-03
