# Atmospheric Model 7201202103
# Col. #1          #2           #3            #4
# Alt [km]    rho [g/cm^3] thick [g/cm^2]    n-1
0.00000E+00 1.25772E-03 1.00644E+03 3.00000E-03
1.00000E+00 1.12550E-03 8.87406E+02 3.00000E-03
2.00000E+00 1.00722E-03 7.80879E+02 3.00000E-03
3.00000E+00 9.01379E-04 6.85548E+02 3.00000E-03
4.00000E+00 8.05031E-04 6.00319E+02 3.00000E-03
5.00000E+00 7.19149E-04 5.24191E+02 3.00000E-03
6.00000E+00 6.42442E-04 4.56184E+02 3.00000E-03
7.00000E+00 5.73928E-04 3.95430E+02 3.00000E-03
8.00000E+00 5.12731E-04 3.41154E+02 3.00000E-03
9.00000E+00 4.52242E-04 2.92775E+02 3.00000E-03
1.00000E+01 3.87047E-04 2.50895E+02 3.00000E-03
1.10000E+01 3.31251E-04 2.15053E+02 3.00000E-03
1.20000E+01 2.83503E-04 1.84377E+02 3.00000E-03
1.30000E+01 2.42640E-04 1.58123E+02 3.00000E-03
1.40000E+01 2.07670E-04 1.35652E+02 3.00000E-03
1.50000E+01 1.77743E-04 1.16421E+02 3.00000E-03
1.60000E+01 1.52130E-04 9.99602E+01 3.00000E-03
1.70000E+01 1.30210E-04 8.58716E+01 3.00000E-03
1.80000E+01 1.11450E-04 7.38129E+01 3.00000E-03
1.90000E+01 9.53939E-05 6.34916E+01 3.00000E-03
2.00000E+01 8.16522E-05 5.46571E+01 3.00000E-03
2.10000E+01 6.98909E-05 4.70952E+01 3.00000E-03
2.20000E+01 5.98246E-05 4.06224E+01 3.00000E-03
2.30000E+01 5.12088E-05 3.50819E+01 3.00000E-03
2.40000E+01 4.38344E-05 3.03393E+01 3.00000E-03
2.50000E+01 3.75226E-05 2.62797E+01 3.00000E-03
2.75000E+01 2.58718E-05 1.84819E+01 3.00000E-03
3.00000E+01 1.82318E-05 1.30246E+01 3.00000E-03
3.25000E+01 1.28480E-05 9.17876E+00 3.00000E-03
3.50000E+01 9.05407E-06 6.46861E+00 3.00000E-03
3.75000E+01 6.38050E-06 4.55875E+00 3.00000E-03
4.00000E+01 4.49643E-06 3.21284E+00 3.00000E-03
4.25000E+01 3.16872E-06 2.26436E+00 3.00000E-03
4.50000E+01 2.23308E-06 1.59594E+00 3.00000E-03
4.75000E+01 1.57371E-06 1.12489E+00 3.00000E-03
5.00000E+01 1.10905E-06 7.92925E-01 3.00000E-03
5.50000E+01 5.50816E-07 3.94107E-01 3.00000E-03
6.00000E+01 2.73574E-07 1.96029E-01 3.00000E-03
6.50000E+01 1.35879E-07 9.76487E-02 3.00000E-03
7.00000E+01 6.74905E-08 4.87843E-02 3.00000E-03
7.50000E+01 3.35231E-08 2.45134E-02 3.00000E-03
8.00000E+01 1.66516E-08 1.24577E-02 3.00000E-03
8.50000E+01 8.27139E-09 6.46930E-03 3.00000E-03
9.00000E+01 4.10878E-09 3.49464E-03 3.00000E-03
9.50000E+01 2.04107E-09 2.01697E-03 3.00000E-03
1.00000E+02 1.00000E-09 1.28292E-03 3.00000E-03
1.05000E+02 9.52381E-10 7.82920E-04 3.00000E-03
1.10000E+02 9.09091E-10 2.82920E-04 3.00000E-03
1.15000E+02 8.69565E-10 1.00000E-05 3.00000E-03
1.20000E+02 8.33333E-10 0.00000E+00 3.00000E-03
