# Atmospheric Model 72012108
# Col. #1          #2           #3            #4
# Alt [km]    rho [g/cm^3] thick [g/cm^2]    n-1
0.00000E+00 1.29458E-03 1.01778E+03 3.00000E-03
1.00000E+00 1.15318E-03 8.95533E+02 3.00000E-03
2.00000E+00 1.02730E-03 7.86631E+02 3.00000E-03
3.00000E+00 9.15221E-04 6.89612E+02 3.00000E-03
4.00000E+00 8.16931E-04 6.03114E+02 3.00000E-03
5.00000E+00 7.29553E-04 5.25873E+02 3.00000E-03
6.00000E+00 6.51541E-04 4.56892E+02 3.00000E-03
7.00000E+00 5.81889E-04 3.95286E+02 3.00000E-03
8.00000E+00 5.19698E-04 3.40265E+02 3.00000E-03
9.00000E+00 4.52913E-04 2.91468E+02 3.00000E-03
1.00000E+01 3.87008E-04 2.49558E+02 3.00000E-03
1.10000E+01 3.30699E-04 2.13747E+02 3.00000E-03
1.20000E+01 2.82588E-04 1.83146E+02 3.00000E-03
1.30000E+01 2.41481E-04 1.56996E+02 3.00000E-03
1.40000E+01 2.06358E-04 1.34650E+02 3.00000E-03
1.50000E+01 1.76346E-04 1.15554E+02 3.00000E-03
1.60000E+01 1.50702E-04 9.92354E+01 3.00000E-03
1.70000E+01 1.28789E-04 8.52895E+01 3.00000E-03
1.80000E+01 1.10065E-04 7.33713E+01 3.00000E-03
1.90000E+01 9.40646E-05 6.31858E+01 3.00000E-03
2.00000E+01 8.03918E-05 5.44809E+01 3.00000E-03
2.10000E+01 6.87076E-05 4.70412E+01 3.00000E-03
2.20000E+01 5.87227E-05 4.06828E+01 3.00000E-03
2.30000E+01 5.01898E-05 3.52483E+01 3.00000E-03
2.40000E+01 4.29026E-05 3.06035E+01 3.00000E-03
2.50000E+01 3.71203E-05 2.66156E+01 3.00000E-03
2.75000E+01 2.61918E-05 1.87809E+01 3.00000E-03
3.00000E+01 1.84810E-05 1.32527E+01 3.00000E-03
3.25000E+01 1.30405E-05 9.35193E+00 3.00000E-03
3.50000E+01 9.20177E-06 6.59948E+00 3.00000E-03
3.75000E+01 6.49315E-06 4.65725E+00 3.00000E-03
4.00000E+01 4.58192E-06 3.28672E+00 3.00000E-03
4.25000E+01 3.23331E-06 2.31960E+00 3.00000E-03
4.50000E+01 2.28168E-06 1.63712E+00 3.00000E-03
4.75000E+01 1.61016E-06 1.15551E+00 3.00000E-03
5.00000E+01 1.13629E-06 8.15637E-01 3.00000E-03
5.50000E+01 5.65923E-07 4.06519E-01 3.00000E-03
6.00000E+01 2.81872E-07 2.02754E-01 3.00000E-03
6.50000E+01 1.40403E-07 1.01261E-01 3.00000E-03
7.00000E+01 6.99406E-08 5.07053E-02 3.00000E-03
7.50000E+01 3.48425E-08 2.55205E-02 3.00000E-03
8.00000E+01 1.73587E-08 1.29738E-02 3.00000E-03
8.50000E+01 8.64875E-09 6.72276E-03 3.00000E-03
9.00000E+01 4.30938E-09 3.60819E-03 3.00000E-03
9.50000E+01 2.14735E-09 2.05626E-03 3.00000E-03
1.00000E+02 1.00000E-09 1.28292E-03 3.00000E-03
1.05000E+02 9.52381E-10 7.82920E-04 3.00000E-03
1.10000E+02 9.09091E-10 2.82920E-04 3.00000E-03
1.15000E+02 8.69565E-10 1.00000E-05 3.00000E-03
1.20000E+02 8.33333E-10 0.00000E+00 3.00000E-03
