# Atmospheric Model 5102202106
# Col. #1          #2           #3            #4
# Alt [km]    rho [g/cm^3] thick [g/cm^2]    n-1
0.00000E+00 1.15449E-03 1.05019E+03 3.00000E-03
1.00000E+00 1.04827E-03 9.40137E+02 3.00000E-03
2.00000E+00 9.51828E-04 8.40210E+02 3.00000E-03
3.00000E+00 8.64257E-04 7.49476E+02 3.00000E-03
4.00000E+00 7.84743E-04 6.67090E+02 3.00000E-03
5.00000E+00 7.10068E-04 5.92355E+02 3.00000E-03
6.00000E+00 6.40832E-04 5.24870E+02 3.00000E-03
7.00000E+00 5.78358E-04 4.63964E+02 3.00000E-03
8.00000E+00 5.21983E-04 4.08995E+02 3.00000E-03
9.00000E+00 4.71113E-04 3.59384E+02 3.00000E-03
1.00000E+01 4.21409E-04 3.14664E+02 3.00000E-03
1.10000E+01 3.69072E-04 2.75198E+02 3.00000E-03
1.20000E+01 3.23237E-04 2.40633E+02 3.00000E-03
1.30000E+01 2.83095E-04 2.10361E+02 3.00000E-03
1.40000E+01 2.47939E-04 1.83848E+02 3.00000E-03
1.50000E+01 2.17150E-04 1.60628E+02 3.00000E-03
1.60000E+01 1.90185E-04 1.40291E+02 3.00000E-03
1.70000E+01 1.66568E-04 1.22479E+02 3.00000E-03
1.80000E+01 1.45885E-04 1.06879E+02 3.00000E-03
1.90000E+01 1.27771E-04 9.32167E+01 3.00000E-03
2.00000E+01 1.11906E-04 8.12503E+01 3.00000E-03
2.10000E+01 9.80119E-05 7.07698E+01 3.00000E-03
2.20000E+01 8.58428E-05 6.15905E+01 3.00000E-03
2.30000E+01 7.51850E-05 5.35509E+01 3.00000E-03
2.40000E+01 6.58506E-05 4.65094E+01 3.00000E-03
2.50000E+01 5.76753E-05 4.03421E+01 3.00000E-03
2.75000E+01 4.09374E-05 2.80899E+01 3.00000E-03
3.00000E+01 2.84312E-05 1.95137E+01 3.00000E-03
3.25000E+01 1.97475E-05 1.35572E+01 3.00000E-03
3.50000E+01 1.37173E-05 9.41982E+00 3.00000E-03
3.75000E+01 9.52936E-06 6.54573E+00 3.00000E-03
4.00000E+01 6.62063E-06 4.54902E+00 3.00000E-03
4.25000E+01 4.60018E-06 3.16172E+00 3.00000E-03
4.50000E+01 3.19661E-06 2.19774E+00 3.00000E-03
4.75000E+01 2.22149E-06 1.52786E+00 3.00000E-03
5.00000E+01 1.54397E-06 1.06231E+00 3.00000E-03
5.50000E+01 7.46006E-07 5.13804E-01 3.00000E-03
6.00000E+01 3.60580E-07 2.48739E-01 3.00000E-03
6.50000E+01 1.74346E-07 1.20601E-01 3.00000E-03
7.00000E+01 8.43288E-08 5.86350E-02 3.00000E-03
7.50000E+01 4.08027E-08 2.86581E-02 3.00000E-03
8.00000E+01 1.97492E-08 1.41516E-02 3.00000E-03
8.50000E+01 9.56220E-09 7.12913E-03 3.00000E-03
9.00000E+01 4.63138E-09 3.72848E-03 3.00000E-03
9.50000E+01 2.24392E-09 2.08116E-03 3.00000E-03
1.00000E+02 1.00000E-09 1.28292E-03 3.00000E-03
1.05000E+02 9.52381E-10 7.82920E-04 3.00000E-03
1.10000E+02 9.09091E-10 2.82920E-04 3.00000E-03
1.15000E+02 8.69565E-10 1.00000E-05 3.00000E-03
1.20000E+02 8.33333E-10 0.00000E+00 3.00000E-03
