# Atmospheric Model 5104202101
# Col. #1          #2           #3            #4
# Alt [km]    rho [g/cm^3] thick [g/cm^2]    n-1
0.00000E+00 1.15504E-03 1.05028E+03 3.00000E-03
1.00000E+00 1.04698E-03 9.40273E+02 3.00000E-03
2.00000E+00 9.49071E-04 8.40551E+02 3.00000E-03
3.00000E+00 8.60360E-04 7.50152E+02 3.00000E-03
4.00000E+00 7.80376E-04 6.68197E+02 3.00000E-03
5.00000E+00 7.05564E-04 5.93914E+02 3.00000E-03
6.00000E+00 6.36810E-04 5.26854E+02 3.00000E-03
7.00000E+00 5.74762E-04 4.66328E+02 3.00000E-03
8.00000E+00 5.18764E-04 4.11700E+02 3.00000E-03
9.00000E+00 4.68226E-04 3.62394E+02 3.00000E-03
1.00000E+01 4.19479E-04 3.17933E+02 3.00000E-03
1.10000E+01 3.68249E-04 2.78602E+02 3.00000E-03
1.20000E+01 3.23277E-04 2.44075E+02 3.00000E-03
1.30000E+01 2.83797E-04 2.13764E+02 3.00000E-03
1.40000E+01 2.49140E-04 1.87155E+02 3.00000E-03
1.50000E+01 2.18715E-04 1.63795E+02 3.00000E-03
1.60000E+01 1.92007E-04 1.43288E+02 3.00000E-03
1.70000E+01 1.68560E-04 1.25285E+02 3.00000E-03
1.80000E+01 1.47977E-04 1.09481E+02 3.00000E-03
1.90000E+01 1.29908E-04 9.56060E+01 3.00000E-03
2.00000E+01 1.14045E-04 8.34256E+01 3.00000E-03
2.10000E+01 1.00120E-04 7.27324E+01 3.00000E-03
2.20000E+01 8.78950E-05 6.33449E+01 3.00000E-03
2.30000E+01 7.71631E-05 5.51037E+01 3.00000E-03
2.40000E+01 6.77417E-05 4.78687E+01 3.00000E-03
2.50000E+01 5.94708E-05 4.15170E+01 3.00000E-03
2.75000E+01 4.22079E-05 2.88688E+01 3.00000E-03
3.00000E+01 2.92769E-05 2.00316E+01 3.00000E-03
3.25000E+01 2.03101E-05 1.39015E+01 3.00000E-03
3.50000E+01 1.40914E-05 9.64857E+00 3.00000E-03
3.75000E+01 9.77811E-06 6.69767E+00 3.00000E-03
4.00000E+01 6.78595E-06 4.64990E+00 3.00000E-03
4.25000E+01 4.71001E-06 3.22868E+00 3.00000E-03
4.50000E+01 3.26955E-06 2.24218E+00 3.00000E-03
4.75000E+01 2.26991E-06 1.55733E+00 3.00000E-03
5.00000E+01 1.57610E-06 1.08185E+00 3.00000E-03
5.50000E+01 7.60142E-07 5.22385E-01 3.00000E-03
6.00000E+01 3.66790E-07 2.52502E-01 3.00000E-03
6.50000E+01 1.77072E-07 1.22248E-01 3.00000E-03
7.00000E+01 8.55237E-08 5.93537E-02 3.00000E-03
7.50000E+01 4.13261E-08 2.89701E-02 3.00000E-03
8.00000E+01 1.99785E-08 1.42854E-02 3.00000E-03
8.50000E+01 9.66260E-09 7.18488E-03 3.00000E-03
9.00000E+01 4.67538E-09 3.75006E-03 3.00000E-03
9.50000E+01 2.26323E-09 2.08775E-03 3.00000E-03
1.00000E+02 1.00000E-09 1.28292E-03 3.00000E-03
1.05000E+02 9.52381E-10 7.82920E-04 3.00000E-03
1.10000E+02 9.09091E-10 2.82920E-04 3.00000E-03
1.15000E+02 8.69565E-10 1.00000E-05 3.00000E-03
1.20000E+02 8.33333E-10 0.00000E+00 3.00000E-03
