# Atmospheric Model 51042107
# Col. #1          #2           #3            #4
# Alt [km]    rho [g/cm^3] thick [g/cm^2]    n-1
0.00000E+00 1.15528E-03 1.05194E+03 3.00000E-03
1.00000E+00 1.04982E-03 9.41772E+02 3.00000E-03
2.00000E+00 9.53978E-04 8.41659E+02 3.00000E-03
3.00000E+00 8.66891E-04 7.50685E+02 3.00000E-03
4.00000E+00 7.87754E-04 6.68015E+02 3.00000E-03
5.00000E+00 7.11653E-04 5.93052E+02 3.00000E-03
6.00000E+00 6.41593E-04 5.25450E+02 3.00000E-03
7.00000E+00 5.78447E-04 4.64503E+02 3.00000E-03
8.00000E+00 5.21532E-04 4.09553E+02 3.00000E-03
9.00000E+00 4.70231E-04 3.60009E+02 3.00000E-03
1.00000E+01 4.20678E-04 3.15385E+02 3.00000E-03
1.10000E+01 3.68693E-04 2.75973E+02 3.00000E-03
1.20000E+01 3.23134E-04 2.41432E+02 3.00000E-03
1.30000E+01 2.83206E-04 2.11159E+02 3.00000E-03
1.40000E+01 2.48213E-04 1.84626E+02 3.00000E-03
1.50000E+01 2.17545E-04 1.61372E+02 3.00000E-03
1.60000E+01 1.90668E-04 1.40991E+02 3.00000E-03
1.70000E+01 1.67112E-04 1.23128E+02 3.00000E-03
1.80000E+01 1.46467E-04 1.07472E+02 3.00000E-03
1.90000E+01 1.28373E-04 9.37494E+01 3.00000E-03
2.00000E+01 1.12515E-04 8.17224E+01 3.00000E-03
2.10000E+01 9.86168E-05 7.11811E+01 3.00000E-03
2.20000E+01 8.64357E-05 6.19419E+01 3.00000E-03
2.30000E+01 7.57595E-05 5.38438E+01 3.00000E-03
2.40000E+01 6.64025E-05 4.67460E+01 3.00000E-03
2.50000E+01 5.82014E-05 4.05248E+01 3.00000E-03
2.75000E+01 4.13431E-05 2.81511E+01 3.00000E-03
3.00000E+01 2.86320E-05 1.95014E+01 3.00000E-03
3.25000E+01 1.98309E-05 1.35107E+01 3.00000E-03
3.50000E+01 1.37366E-05 9.36135E+00 3.00000E-03
3.75000E+01 9.51603E-06 6.48700E+00 3.00000E-03
4.00000E+01 6.59290E-06 4.49570E+00 3.00000E-03
4.25000E+01 4.56814E-06 3.11603E+00 3.00000E-03
4.50000E+01 3.16552E-06 2.16002E+00 3.00000E-03
4.75000E+01 2.19378E-06 1.49752E+00 3.00000E-03
5.00000E+01 1.52049E-06 1.03837E+00 3.00000E-03
5.50000E+01 7.30618E-07 4.99518E-01 3.00000E-03
6.00000E+01 3.51208E-07 2.40547E-01 3.00000E-03
6.50000E+01 1.68890E-07 1.16039E-01 3.00000E-03
7.00000E+01 8.12473E-08 5.61554E-02 3.00000E-03
7.50000E+01 3.91000E-08 2.73425E-02 3.00000E-03
8.00000E+01 1.88238E-08 1.34742E-02 3.00000E-03
8.50000E+01 9.06563E-09 6.79647E-03 3.00000E-03
9.00000E+01 4.36765E-09 3.57994E-03 3.00000E-03
9.50000E+01 2.10502E-09 2.03003E-03 3.00000E-03
1.00000E+02 1.00000E-09 1.28292E-03 3.00000E-03
1.05000E+02 9.52381E-10 7.82920E-04 3.00000E-03
1.10000E+02 9.09091E-10 2.82920E-04 3.00000E-03
1.15000E+02 8.69565E-10 1.00000E-05 3.00000E-03
1.20000E+02 8.33333E-10 0.00000E+00 3.00000E-03
