# Atmospheric Model 5104202102
# Col. #1          #2           #3            #4
# Alt [km]    rho [g/cm^3] thick [g/cm^2]    n-1
0.00000E+00 1.14308E-03 1.04898E+03 3.00000E-03
1.00000E+00 1.03938E-03 9.39942E+02 3.00000E-03
2.00000E+00 9.45091E-04 8.40793E+02 3.00000E-03
3.00000E+00 8.59353E-04 7.50638E+02 3.00000E-03
4.00000E+00 7.81395E-04 6.68663E+02 3.00000E-03
5.00000E+00 7.06401E-04 5.94279E+02 3.00000E-03
6.00000E+00 6.37311E-04 5.27153E+02 3.00000E-03
7.00000E+00 5.74990E-04 4.66592E+02 3.00000E-03
8.00000E+00 5.18774E-04 4.11952E+02 3.00000E-03
9.00000E+00 4.68064E-04 3.62653E+02 3.00000E-03
1.00000E+01 4.19297E-04 3.18214E+02 3.00000E-03
1.10000E+01 3.68180E-04 2.78895E+02 3.00000E-03
1.20000E+01 3.23296E-04 2.44370E+02 3.00000E-03
1.30000E+01 2.83885E-04 2.14054E+02 3.00000E-03
1.40000E+01 2.49279E-04 1.87433E+02 3.00000E-03
1.50000E+01 2.18892E-04 1.64058E+02 3.00000E-03
1.60000E+01 1.92209E-04 1.43532E+02 3.00000E-03
1.70000E+01 1.68780E-04 1.25507E+02 3.00000E-03
1.80000E+01 1.48207E-04 1.09680E+02 3.00000E-03
1.90000E+01 1.30142E-04 9.57825E+01 3.00000E-03
2.00000E+01 1.14280E-04 8.35785E+01 3.00000E-03
2.10000E+01 1.00351E-04 7.28621E+01 3.00000E-03
2.20000E+01 8.81199E-05 6.34518E+01 3.00000E-03
2.30000E+01 7.73799E-05 5.51885E+01 3.00000E-03
2.40000E+01 6.79492E-05 4.79322E+01 3.00000E-03
2.50000E+01 5.96679E-05 4.15603E+01 3.00000E-03
2.75000E+01 4.23468E-05 2.88674E+01 3.00000E-03
3.00000E+01 2.93385E-05 2.00061E+01 3.00000E-03
3.25000E+01 2.03284E-05 1.38665E+01 3.00000E-03
3.50000E+01 1.40870E-05 9.61217E+00 3.00000E-03
3.75000E+01 9.76300E-06 6.66390E+00 3.00000E-03
4.00000E+01 6.76700E-06 4.62049E+00 3.00000E-03
4.25000E+01 4.69092E-06 3.20408E+00 3.00000E-03
4.50000E+01 3.25212E-06 2.22216E+00 3.00000E-03
4.75000E+01 2.25489E-06 1.54138E+00 3.00000E-03
5.00000E+01 1.56362E-06 1.06934E+00 3.00000E-03
5.50000E+01 7.52113E-07 5.14952E-01 3.00000E-03
6.00000E+01 3.61930E-07 2.48237E-01 3.00000E-03
6.50000E+01 1.74242E-07 1.19865E-01 3.00000E-03
7.00000E+01 8.39201E-08 5.80519E-02 3.00000E-03
7.50000E+01 4.04354E-08 2.82754E-02 3.00000E-03
8.00000E+01 1.94912E-08 1.39255E-02 3.00000E-03
8.50000E+01 9.39929E-09 7.00708E-03 3.00000E-03
9.00000E+01 4.53449E-09 3.67021E-03 3.00000E-03
9.50000E+01 2.18845E-09 2.06012E-03 3.00000E-03
1.00000E+02 1.00000E-09 1.28292E-03 3.00000E-03
1.05000E+02 9.52381E-10 7.82920E-04 3.00000E-03
1.10000E+02 9.09091E-10 2.82920E-04 3.00000E-03
1.15000E+02 8.69565E-10 1.00000E-05 3.00000E-03
1.20000E+02 8.33333E-10 0.00000E+00 3.00000E-03
