# Atmospheric Model 51042103
# Col. #1          #2           #3            #4
# Alt [km]    rho [g/cm^3] thick [g/cm^2]    n-1
0.00000E+00 1.14496E-03 1.04981E+03 3.00000E-03
1.00000E+00 1.04119E-03 9.40582E+02 3.00000E-03
2.00000E+00 9.46822E-04 8.41256E+02 3.00000E-03
3.00000E+00 8.61010E-04 7.50933E+02 3.00000E-03
4.00000E+00 7.82974E-04 6.68795E+02 3.00000E-03
5.00000E+00 7.07597E-04 5.94269E+02 3.00000E-03
6.00000E+00 6.38081E-04 5.27045E+02 3.00000E-03
7.00000E+00 5.75401E-04 4.66425E+02 3.00000E-03
8.00000E+00 5.18884E-04 4.11760E+02 3.00000E-03
9.00000E+00 4.67923E-04 3.62464E+02 3.00000E-03
1.00000E+01 4.18937E-04 3.18050E+02 3.00000E-03
1.10000E+01 3.67882E-04 2.78764E+02 3.00000E-03
1.20000E+01 3.23050E-04 2.44266E+02 3.00000E-03
1.30000E+01 2.83681E-04 2.13972E+02 3.00000E-03
1.40000E+01 2.49110E-04 1.87370E+02 3.00000E-03
1.50000E+01 2.18753E-04 1.64010E+02 3.00000E-03
1.60000E+01 1.92095E-04 1.43496E+02 3.00000E-03
1.70000E+01 1.68686E-04 1.25483E+02 3.00000E-03
1.80000E+01 1.48130E-04 1.09664E+02 3.00000E-03
1.90000E+01 1.30079E-04 9.57733E+01 3.00000E-03
2.00000E+01 1.14228E-04 8.35751E+01 3.00000E-03
2.10000E+01 1.00309E-04 7.28633E+01 3.00000E-03
2.20000E+01 8.80856E-05 6.34568E+01 3.00000E-03
2.30000E+01 7.73520E-05 5.51965E+01 3.00000E-03
2.40000E+01 6.79265E-05 4.79428E+01 3.00000E-03
2.50000E+01 5.96495E-05 4.15730E+01 3.00000E-03
2.75000E+01 4.23757E-05 2.88789E+01 3.00000E-03
3.00000E+01 2.93532E-05 2.00122E+01 3.00000E-03
3.25000E+01 2.03357E-05 1.38700E+01 3.00000E-03
3.50000E+01 1.40905E-05 9.61442E+00 3.00000E-03
3.75000E+01 9.76464E-06 6.66554E+00 3.00000E-03
4.00000E+01 6.76785E-06 4.62184E+00 3.00000E-03
4.25000E+01 4.69146E-06 3.20526E+00 3.00000E-03
4.50000E+01 3.25258E-06 2.22323E+00 3.00000E-03
4.75000E+01 2.25533E-06 1.54234E+00 3.00000E-03
5.00000E+01 1.56406E-06 1.07018E+00 3.00000E-03
5.50000E+01 7.52530E-07 5.15576E-01 3.00000E-03
6.00000E+01 3.62273E-07 2.48670E-01 3.00000E-03
6.50000E+01 1.74496E-07 1.20149E-01 3.00000E-03
7.00000E+01 8.40948E-08 5.82293E-02 3.00000E-03
7.50000E+01 4.05493E-08 2.83814E-02 3.00000E-03
8.00000E+01 1.95625E-08 1.39859E-02 3.00000E-03
8.50000E+01 9.44249E-09 7.03944E-03 3.00000E-03
9.00000E+01 4.56003E-09 3.68574E-03 3.00000E-03
9.50000E+01 2.20325E-09 2.06579E-03 3.00000E-03
1.00000E+02 1.00000E-09 1.28292E-03 3.00000E-03
1.05000E+02 9.52381E-10 7.82920E-04 3.00000E-03
1.10000E+02 9.09091E-10 2.82920E-04 3.00000E-03
1.15000E+02 8.69565E-10 1.00000E-05 3.00000E-03
1.20000E+02 8.33333E-10 0.00000E+00 3.00000E-03
