# Atmospheric Model 57052101
# Col. #1          #2           #3            #4
# Alt [km]    rho [g/cm^3] thick [g/cm^2]    n-1
0.00000E+00 1.15462E-03 1.05444E+03 3.00000E-03
1.00000E+00 1.05086E-03 9.44250E+02 3.00000E-03
2.00000E+00 9.56438E-04 8.43960E+02 3.00000E-03
3.00000E+00 8.70506E-04 7.52680E+02 3.00000E-03
4.00000E+00 7.90175E-04 6.69626E+02 3.00000E-03
5.00000E+00 7.11125E-04 5.94631E+02 3.00000E-03
6.00000E+00 6.39983E-04 5.27138E+02 3.00000E-03
7.00000E+00 5.75959E-04 4.66397E+02 3.00000E-03
8.00000E+00 5.18341E-04 4.11733E+02 3.00000E-03
9.00000E+00 4.66487E-04 3.62537E+02 3.00000E-03
1.00000E+01 4.17045E-04 3.18302E+02 3.00000E-03
1.10000E+01 3.66503E-04 2.79179E+02 3.00000E-03
1.20000E+01 3.22086E-04 2.44797E+02 3.00000E-03
1.30000E+01 2.83052E-04 2.14582E+02 3.00000E-03
1.40000E+01 2.48749E-04 1.88029E+02 3.00000E-03
1.50000E+01 2.18603E-04 1.64694E+02 3.00000E-03
1.60000E+01 1.92111E-04 1.44187E+02 3.00000E-03
1.70000E+01 1.68829E-04 1.26165E+02 3.00000E-03
1.80000E+01 1.48369E-04 1.10327E+02 3.00000E-03
1.90000E+01 1.30388E-04 9.64083E+01 3.00000E-03
2.00000E+01 1.14587E-04 8.41765E+01 3.00000E-03
2.10000E+01 1.00700E-04 7.34271E+01 3.00000E-03
2.20000E+01 8.84969E-05 6.39804E+01 3.00000E-03
2.30000E+01 7.77722E-05 5.56785E+01 3.00000E-03
2.40000E+01 6.83473E-05 4.83826E+01 3.00000E-03
2.50000E+01 6.00646E-05 4.19709E+01 3.00000E-03
2.75000E+01 4.26554E-05 2.91877E+01 3.00000E-03
3.00000E+01 2.95906E-05 2.02564E+01 3.00000E-03
3.25000E+01 2.05305E-05 1.40602E+01 3.00000E-03
3.50000E+01 1.42466E-05 9.76082E+00 3.00000E-03
3.75000E+01 9.88755E-06 6.77719E+00 3.00000E-03
4.00000E+01 6.86327E-06 4.70631E+00 3.00000E-03
4.25000E+01 4.76473E-06 3.26875E+00 3.00000E-03
4.50000E+01 3.30834E-06 2.27067E+00 3.00000E-03
4.75000E+01 2.29745E-06 1.57762E+00 3.00000E-03
5.00000E+01 1.59567E-06 1.09630E+00 3.00000E-03
5.50000E+01 7.70064E-07 5.29739E-01 3.00000E-03
6.00000E+01 3.71840E-07 2.56250E-01 3.00000E-03
6.50000E+01 1.79650E-07 1.24158E-01 3.00000E-03
7.00000E+01 8.68432E-08 6.03241E-02 3.00000E-03
7.50000E+01 4.20026E-08 2.94594E-02 3.00000E-03
8.00000E+01 2.03257E-08 1.45278E-02 3.00000E-03
8.50000E+01 9.84094E-09 7.30062E-03 3.00000E-03
9.00000E+01 4.76702E-09 3.80069E-03 3.00000E-03
9.50000E+01 2.31031E-09 2.10494E-03 3.00000E-03
1.00000E+02 1.00000E-09 1.28292E-03 3.00000E-03
1.05000E+02 9.52381E-10 7.82920E-04 3.00000E-03
1.10000E+02 9.09091E-10 2.82920E-04 3.00000E-03
1.15000E+02 8.69565E-10 1.00000E-05 3.00000E-03
1.20000E+02 8.33333E-10 0.00000E+00 3.00000E-03
